3528.51	160
3527.23	143
3525.95	190
3524.67	187.5
3523.39	197.5
3522.1	170.5
3520.82	170
3519.54	179
3518.26	197
3516.97	185
3515.69	165.5
3514.4	187
3513.12	180.5
3511.84	208.5
3510.55	181
3509.26	193.5
3507.98	204.5
3506.69	213.5
3505.41	207.5
3504.12	192
3502.83	176
3501.54	196
3500.26	214
3498.97	193.5
3497.68	210.5
3496.39	211
3495.1	234
3493.81	227
3492.52	214
3491.23	223.5
3489.94	221
3488.65	206
3487.36	250
3486.07	224
3484.78	231
3483.49	249.5
3482.19	257
3480.9	227
3479.61	212
3478.31	227
3477.02	260
3475.73	241
3474.43	244.5
3473.14	245
3471.84	253.5
3470.54	266.5
3469.25	270.5
3467.95	244
3466.66	262.5
3465.36	264
3464.06	265.5
3462.76	276.5
3461.46	232
3460.17	281
3458.87	274.5
3457.57	279
3456.27	279.5
3454.97	275
3453.67	275.5
3452.37	285
3451.07	282.5
3449.77	317
3448.47	296
3447.16	293
3445.86	312
3444.56	318
3443.26	317
3441.95	310
3440.65	327
3439.35	324.5
3438.04	296
3436.74	343
3435.43	343
3434.13	339
3432.82	351
3431.52	356
3430.21	359
3428.9	365
3427.6	363
3426.29	396
3424.98	402
3423.67	391
3422.36	411
3421.06	423
3419.75	424
3418.44	399
3417.13	418
3415.82	408
3414.51	414
3413.2	446
3411.88	436.5
3410.57	413
3409.26	430
3407.95	451
3406.64	477.5
3405.32	466
3404.01	471
3402.7	449
3401.38	455
3400.07	451
3398.75	459
3397.44	473.5
3396.12	461.5
3394.81	488
3393.49	510
3392.18	501
3390.86	478
3389.54	493.5
3388.23	511
3386.91	509
3385.59	522.5
3384.27	502.5
3382.95	519
3381.63	529
3380.31	568.5
3378.99	520
3377.67	541.5
3376.35	556
3375.03	541.5
3373.71	550
3372.39	552
3371.07	520
3369.75	582.5
3368.42	568.5
3367.1	561
3365.78	543.5
3364.45	598
3363.13	581.5
3361.81	624.5
3360.48	577.5
3359.16	584
3357.83	587
3356.51	583
3355.18	569.5
3353.85	624.5
3352.53	606
3351.2	586
3349.87	609
3348.54	601
3347.22	629
3345.89	635
3344.56	598
3343.23	622.5
3341.9	614.5
3340.57	636.5
3339.24	619.5
3337.91	646
3336.58	615
3335.25	600
3333.92	653.5
3332.58	633
3331.25	652
3329.92	651
3328.59	625
3327.25	655.5
3325.92	688.5
3324.58	643.5
3323.25	642
3321.92	657
3320.58	632
3319.25	673.5
3317.91	665
3316.57	690.5
3315.24	672.5
3313.9	662.5
3312.56	676
3311.23	700
3309.89	684
3308.55	701
3307.21	711
3305.87	723.5
3304.53	716
3303.19	705
3301.85	712
3300.51	705
3299.17	705
3297.83	712
3296.49	723
3295.15	732
3293.81	711
3292.46	730
3291.12	753
3289.78	744.5
3288.43	765
3287.09	731
3285.75	744
3284.4	765.5
3283.06	768
3281.71	765.5
3280.37	777
3279.02	723
3277.67	772
3276.33	770
3274.98	739.5
3273.63	755
3272.28	772
3270.94	776.5
3269.59	786
3268.24	802
3266.89	813.5
3265.54	777.5
3264.19	852.5
3262.84	819
3261.49	813
3260.14	802
3258.79	837
3257.44	881
3256.08	875.5
3254.73	874.5
3253.38	878.5
3252.03	908.5
3250.67	948
3249.32	948
3247.96	936
3246.61	990
3245.26	1004
3243.9	1051
3242.54	1048.5
3241.19	1072.5
3239.83	1133
3238.48	1110.5
3237.12	1152
3235.76	1170
3234.41	1176
3233.05	1219.5
3231.69	1245
3230.33	1297
3228.97	1310
3227.61	1353.5
3226.25	1334
3224.89	1397.5
3223.53	1435
3222.17	1463.5
3220.81	1493
3219.45	1536.5
3218.09	1539
3216.72	1555.5
3215.36	1617
3214	1607.5
3212.63	1608.5
3211.27	1593.5
3209.91	1658
3208.54	1676
3207.18	1731.5
3205.81	1682
3204.45	1739.5
3203.08	1732
3201.71	1764
3200.35	1779.5
3198.98	1746
3197.61	1730
3196.25	1736
3194.88	1798
3193.51	1808.5
3192.14	1796
3190.77	1777
3189.4	1819.5
3188.03	1773
3186.66	1834.5
3185.29	1871.5
3183.92	1879.5
3182.55	1873
3181.18	1882.5
3179.81	1920.5
3178.44	1861.5
3177.06	1898
3175.69	1896
3174.32	1959
3172.94	1929
3171.57	1920
3170.2	1980.5
3168.82	1978
3167.45	1983
3166.07	1992
3164.69	2070.5
3163.32	2074.5
3161.94	2039
3160.56	2043
3159.19	2099
3157.81	2106.5
3156.43	2134
3155.05	2134
3153.67	2145
3152.3	2169.5
3150.92	2225
3149.54	2206
3148.16	2264.5
3146.78	2252.5
3145.4	2187
3144.01	2263
3142.63	2271
3141.25	2305
3139.87	2302
3138.49	2319
3137.1	2369
3135.72	2379
3134.34	2388
3132.95	2437
3131.57	2465.5
3130.18	2469
3128.8	2453.5
3127.41	2455
3126.03	2427
3124.64	2524
3123.25	2568.5
3121.87	2530
3120.48	2541
3119.09	2611
3117.7	2565
3116.32	2598
3114.93	2608.5
3113.54	2597
3112.15	2607
3110.76	2694.5
3109.37	2677.5
3107.98	2701.5
3106.59	2687
3105.2	2629
3103.8	2744
3102.41	2725.5
3101.02	2711
3099.63	2749
3098.23	2692.5
3096.84	2744
3095.45	2750.5
3094.05	2716.5
3092.66	2782.5
3091.26	2845.5
3089.87	2821
3088.47	2838.5
3087.08	2784
3085.68	2878
3084.28	2846.5
3082.89	2799
3081.49	2853
3080.09	2858
3078.69	2900
3077.3	2860
3075.9	2895
3074.5	2891
3073.1	2897
3071.7	2953
3070.3	2939.5
3068.9	2938
3067.5	2923
3066.09	2945
3064.69	2961
3063.29	2947
3061.89	2960
3060.48	2934
3059.08	2967.5
3057.68	2980
3056.27	2974
3054.87	3026
3053.46	3005.5
3052.06	2993
3050.65	3037
3049.25	3062.5
3047.84	3118.5
3046.44	3039.5
3045.03	3030.5
3043.62	3069
3042.21	3062
3040.81	3087
3039.4	3105.5
3037.99	3123
3036.58	3073
3035.17	3077
3033.76	3105
3032.35	3153
3030.94	3155
3029.53	3140
3028.12	3137
3026.71	3214
3025.29	3189
3023.88	3168
3022.47	3198.5
3021.06	3166
3019.64	3188
3018.23	3192
3016.82	3206.5
3015.4	3166
3013.99	3166
3012.57	3226.5
3011.15	3238
3009.74	3183
3008.32	3258.5
3006.91	3220.5
3005.49	3222
3004.07	3250
3002.65	3267
3001.24	3260
2999.82	3283.5
2998.4	3303
2996.98	3307
2995.56	3339
2994.14	3346
2992.72	3401
2991.3	3399
2989.88	3414
2988.46	3462.5
2987.03	3414
2985.61	3340
2984.19	3434
2982.77	3464
2981.34	3493
2979.92	3500
2978.49	3482
2977.07	3511
2975.65	3551.5
2974.22	3564.5
2972.79	3593.5
2971.37	3643
2969.94	3546
2968.52	3641.5
2967.09	3623
2965.66	3704.5
2964.23	3664.5
2962.81	3696
2961.38	3700
2959.95	3730.5
2958.52	3772.5
2957.09	3715
2955.66	3740.5
2954.23	3746
2952.8	3747
2951.37	3716.5
2949.94	3749.5
2948.5	3733
2947.07	3801
2945.64	3813
2944.21	3784
2942.77	3802
2941.34	3752.5
2939.91	3794
2938.47	3801
2937.04	3830
2935.6	3844
2934.17	3858
2932.73	3874
2931.29	3839
2929.86	3886.5
2928.42	3866
2926.98	3870
2925.55	3965
2924.11	3936
2922.67	3975
2921.23	3928
2919.79	3984.5
2918.35	3963.5
2916.91	3983
2915.47	4027
2914.03	3988.5
2912.59	4001.5
2911.15	4031
2909.71	3995.5
2908.26	4007.5
2906.82	4020
2905.38	4071
2903.94	3964
2902.49	4040.5
2901.05	4063
2899.6	4114
2898.16	4074
2896.71	4059
2895.27	4057
2893.82	4077
2892.38	4186
2890.93	4103.5
2889.48	4117
2888.03	4107
2886.59	4109
2885.14	4153
2883.69	4084.5
2882.24	4135
2880.79	4148.5
2879.34	4103.5
2877.89	4076
2876.44	4055
2874.99	4078
2873.54	4096
2872.09	4058.5
2870.64	4106
2869.18	4125.5
2867.73	4096
2866.28	4138.5
2864.83	4102
2863.37	4148
2861.92	4117
2860.46	4179.5
2859.01	4158
2857.55	4092
2856.1	4154.5
2854.64	4112
2853.19	4132
2851.73	4156.5
2850.27	4198
2848.81	4119.5
2847.36	4199
2845.9	4165
2844.44	4180.5
2842.98	4133
2841.52	4118.5
2840.06	4113.5
2838.6	4166
2837.14	4148.5
2835.68	4148.5
2834.22	4127
2832.76	4096
2831.3	4061
2829.83	4088.5
2828.37	4051.5
2826.91	4056
2825.44	4019
2823.98	4053
2822.52	4077
2821.05	4062
2819.59	3986
2818.12	3984.5
2816.66	3996.5
2815.19	3929
2813.72	3970
2812.26	3921
2810.79	3999.5
2809.32	3966
2807.85	3963
2806.38	3958
2804.92	3948.5
2803.45	3868
2801.98	3992.5
2800.51	3947
2799.04	3961.5
2797.57	3931
2796.1	3950
2794.62	3955
2793.15	3883.5
2791.68	3906.5
2790.21	3885.5
2788.73	3881
2787.26	3914
2785.79	3894.5
2784.31	3889.5
2782.84	3917
2781.36	3872.5
2779.89	3919
2778.41	3874
2776.94	3923
2775.46	3896
2773.99	3916.5
2772.51	3912.5
2771.03	3897
2769.55	3855
2768.07	3943.5
2766.6	3922
2765.12	3921.5
2763.64	3903
2762.16	3860
2760.68	3828.5
2759.2	3900.5
2757.72	3882
2756.24	3850
2754.75	3880
2753.27	3921
2751.79	3886
2750.31	3890.5
2748.82	3907
2747.34	3868
2745.86	3903.5
2744.37	3906.5
2742.89	3874.5
2741.4	3826
2739.92	3832.5
2738.43	3849
2736.94	3862
2735.46	3887
2733.97	3869.5
2732.48	3923.5
2731	3878.5
2729.51	3929.5
2728.02	3902
2726.53	3901.5
2725.04	3874
2723.55	3946
2722.06	3814
2720.57	3922
2719.08	3865
2717.59	3867
2716.1	3894
2714.61	3884.5
2713.11	3917
2711.62	3840.5
2710.13	3863.5
2708.64	3867.5
2707.14	3871.5
2705.65	3815.5
2704.15	3829
2702.66	3813.5
2701.16	3762.5
2699.67	3827.5
2698.17	3774.5
2696.67	3743
2695.18	3779.5
2693.68	3723
2692.18	3745.5
2690.69	3796
2689.19	3768.5
2687.69	3785
2686.19	3725
2684.69	3761
2683.19	3746
2681.69	3692
2680.19	3753
2678.69	3691.5
2677.19	3764
2675.68	3755
2674.18	3684.5
2672.68	3638
2671.18	3694.5
2669.67	3731.5
2668.17	3675
2666.66	3678.5
2665.16	3711
2663.66	3676.5
2662.15	3693
2660.64	3678
2659.14	3671.5
2657.63	3605.5
2656.13	3615.5
2654.62	3601.5
2653.11	3664.5
2651.6	3637
2650.09	3622
2648.58	3640.5
2647.08	3632.5
2645.57	3622.5
2644.06	3605.5
2642.55	3645
2641.04	3619
2639.52	3621.5
2638.01	3598
2636.5	3560
2634.99	3627
2633.48	3554
2631.96	3558
2630.45	3591.5
2628.94	3610.5
2627.42	3620.5
2625.91	3586
2624.39	3551.5
2622.88	3610
2621.36	3519
2619.85	3539
2618.33	3600
2616.81	3580.5
2615.3	3582.5
2613.78	3572.5
2612.26	3551.5
2610.74	3546
2609.22	3464.5
2607.7	3537
2606.18	3500.5
2604.66	3456.5
2603.14	3486
2601.62	3421
2600.1	3484
2598.58	3427
2597.06	3431
2595.54	3461.5
2594.01	3470
2592.49	3432.5
2590.97	3476.5
2589.44	3469.5
2587.92	3438
2586.39	3425
2584.87	3379
2583.34	3404.5
2581.82	3351
2580.29	3447
2578.76	3385
2577.24	3410.5
2575.71	3408
2574.18	3429
2572.65	3343
2571.13	3369
2569.6	3397.5
2568.07	3388.5
2566.54	3358.5
2565.01	3327.5
2563.48	3317
2561.95	3386.5
2560.42	3313
2558.88	3311
2557.35	3303.5
2555.82	3292.5
2554.29	3300
2552.75	3251
2551.22	3293.5
2549.69	3269.5
2548.15	3254
2546.62	3320
2545.08	3281.5
2543.55	3222
2542.01	3279.5
2540.47	3154
2538.94	3196
2537.4	3210
2535.86	3151.5
2534.33	3173
2532.79	3116
2531.25	3165
2529.71	3123
2528.17	3152
2526.63	3086.5
2525.09	3082.5
2523.55	3057
2522.01	3087
2520.47	3059.5
2518.92	3041.5
2517.38	3114
2515.84	3059
2514.3	2967
2512.75	3076
2511.21	3038
2509.67	3071.5
2508.12	3043
2506.58	3002.5
2505.03	2944.5
2503.49	2952
2501.94	2952
2500.39	2969
2498.85	2930.5
2497.3	2934.5
2495.75	2951
2494.2	2914.5
2492.65	2923
2491.11	2881
2489.56	2877
2488.01	2883
2486.46	2888
2484.91	2919
2483.36	2855
2481.8	2869
2480.25	2884.5
2478.7	2818
2477.15	2814
2475.6	2828.5
2474.04	2812
2472.49	2840.5
2470.93	2822
2469.38	2787.5
2467.83	2772
2466.27	2760
2464.71	2780
2463.16	2787
2461.6	2759
2460.05	2762
2458.49	2714.5
2456.93	2746.5
2455.37	2701.5
2453.81	2720
2452.26	2731.5
2450.7	2693.5
2449.14	2652
2447.58	2700.5
2446.02	2667
2444.46	2685
2442.9	2581.5
2441.33	2611
2439.77	2608
2438.21	2610
2436.65	2603
2435.08	2619.5
2433.52	2594.5
2431.96	2621.5
2430.39	2596
2428.83	2586
2427.26	2554.5
2425.7	2543
2424.13	2518
2422.56	2486.5
2421	2575.5
2419.43	2544.5
2417.86	2499
2416.3	2555
2414.73	2558.5
2413.16	2514
2411.59	2465.5
2410.02	2478
2408.45	2491
2406.88	2489.5
2405.31	2486
2403.74	2479
2402.17	2487.5
2400.6	2456.5
2399.02	2437
2397.45	2462
2395.88	2472.5
2394.3	2425
2392.73	2449
2391.16	2465.5
2389.58	2404.5
2388.01	2407
2386.43	2390
2384.86	2435
2383.28	2385.5
2381.7	2377.5
2380.13	2340.5
2378.55	2395
2376.97	2373.5
2375.39	2413
2373.81	2399
2372.23	2407.5
2370.65	2379
2369.07	2352.5
2367.49	2360.5
2365.91	2398
2364.33	2331
2362.75	2341.5
2361.17	2372
2359.59	2362.5
2358.01	2359.5
2356.42	2284.5
2354.84	2288
2353.25	2300
2351.67	2306
2350.09	2262
2348.5	2267.5
2346.92	2256
2345.33	2276.5
2343.74	2264
2342.16	2308
2340.57	2317.5
2338.98	2271.5
2337.39	2259.5
2335.81	2218
2334.22	2229
2332.63	2267
2331.04	2263.5
2329.45	2176
2327.86	2190
2326.27	2191
2324.68	2251.5
2323.09	2214
2321.49	2191
2319.9	2198.5
2318.31	2171
2316.72	2175.5
2315.12	2188.5
2313.53	2172.5
2311.93	2118
2310.34	2167
2308.74	2128
2307.15	2127
2305.55	2070
2303.96	2145.5
2302.36	2116
2300.76	2149
2299.17	2129
2297.57	2067
2295.97	2055.5
2294.37	2051
2292.77	2096
2291.17	2044.5
2289.57	2054.5
2287.97	2056.5
2286.37	2040.5
2284.77	2049
2283.17	1966.5
2281.57	1992.5
2279.96	1989
2278.36	1987
2276.76	1961.5
2275.15	2026.5
2273.55	1972.5
2271.95	1958
2270.34	1974
2268.74	1888
2267.13	1949
2265.52	1950
2263.92	1893.5
2262.31	1926
2260.7	1889
2259.1	1933
2257.49	1927
2255.88	1853
2254.27	1899.5
2252.66	1914.5
2251.05	1854.5
2249.44	1889.5
2247.83	1870
2246.22	1842.5
2244.61	1814
2243	1826
2241.39	1848
2239.77	1790.5
2238.16	1775
2236.55	1846.5
2234.93	1819.5
2233.32	1827
2231.7	1818.5
2230.09	1800
2228.47	1756
2226.86	1791
2225.24	1728.5
2223.63	1740.5
2222.01	1738
2220.39	1761
2218.77	1714.5
2217.16	1726.5
2215.54	1733.5
2213.92	1738.5
2212.3	1760.5
2210.68	1690
2209.06	1700.5
2207.44	1693
2205.82	1707.5
2204.19	1679.5
2202.57	1701
2200.95	1682
2199.33	1683
2197.7	1682
2196.08	1654.5
2194.46	1678
2192.83	1655
2191.21	1658
2189.58	1617.5
2187.96	1686.5
2186.33	1620
2184.7	1634
2183.08	1635
2181.45	1630.5
2179.82	1632.5
2178.19	1600.5
2176.57	1626
2174.94	1610.5
2173.31	1598
2171.68	1570
2170.05	1566
2168.42	1560
2166.79	1568
2165.16	1546
2163.52	1597
2161.89	1569
2160.26	1568
2158.63	1600.5
2156.99	1530
2155.36	1572
2153.73	1551
2152.09	1515.5
2150.46	1498
2148.82	1511.5
2147.18	1538.5
2145.55	1495
2143.91	1535.5
2142.27	1474.5
2140.64	1514
2139	1484
2137.36	1441
2135.72	1480.5
2134.08	1453
2132.44	1420
2130.8	1407
2129.16	1467.5
2127.52	1423
2125.88	1405
2124.24	1393
2122.6	1399.5
2120.95	1373
2119.31	1396.5
2117.67	1326
2116.02	1386.5
2114.38	1345
2112.74	1367.5
2111.09	1354
2109.45	1350
2107.8	1370
2106.15	1303
2104.51	1345
2102.86	1352
2101.21	1350.5
2099.56	1338.5
2097.92	1323
2096.27	1329
2094.62	1338
2092.97	1297.5
2091.32	1354
2089.67	1289.5
2088.02	1306.5
2086.37	1317.5
2084.72	1321
2083.06	1279.5
2081.41	1285.5
2079.76	1276.5
2078.1	1282
2076.45	1279.5
2074.8	1244
2073.14	1232
2071.49	1257
2069.83	1233
2068.18	1236.5
2066.52	1242
2064.86	1230.5
2063.21	1244.5
2061.55	1221
2059.89	1262.5
2058.23	1199
2056.57	1205
2054.92	1189
2053.26	1169.5
2051.6	1201
2049.94	1202
2048.27	1213.5
2046.61	1221
2044.95	1203.5
2043.29	1166.5
2041.63	1206.5
2039.97	1201
2038.3	1206
2036.64	1172
2034.97	1213.5
2033.31	1191.5
2031.64	1188
2029.98	1161.5
2028.31	1113.5
2026.65	1191.5
2024.98	1108
2023.31	1148
2021.65	1154.5
2019.98	1157.5
2018.31	1101
2016.64	1121.5
2014.97	1138.5
2013.3	1117.5
2011.63	1114
2009.96	1112
2008.29	1125.5
2006.62	1092
2004.95	1073.5
2003.28	1082.5
2001.6	1084
1999.93	1053.5
1998.26	1060
1996.58	1055.5
1994.91	1073.5
1993.24	1069
1991.56	1056
1989.89	1045
1988.21	1018
1986.53	1027
1984.86	1058
1983.18	1046
1981.5	1019
1979.82	1041
1978.15	1031.5
1976.47	1034
1974.79	988
1973.11	1033.5
1971.43	1001
1969.75	1034
1968.07	1036
1966.38	1006
1964.7	1013.5
1963.02	1017
1961.34	995.5
1959.66	1025.5
1957.97	1015
1956.29	982
1954.6	1019.5
1952.92	978.5
1951.23	985
1949.55	975
1947.86	949.5
1946.18	980
1944.49	946
1942.8	969
1941.11	970.5
1939.43	970
1937.74	937
1936.05	947.5
1934.36	943
1932.67	918.5
1930.98	916
1929.29	942
1927.6	887
1925.91	908
1924.21	906
1922.52	898.5
1920.83	916.5
1919.14	920
1917.44	886.5
1915.75	876.5
1914.05	879
1912.36	871
1910.66	897
1908.97	886.5
1907.27	882
1905.58	847.5
1903.88	862
1902.18	881
1900.48	862
1898.79	833
1897.09	856
1895.39	795.5
1893.69	851
1891.99	817
1890.29	828
1888.59	805.5
1886.89	800
1885.18	814
1883.48	805
1881.78	791.5
1880.08	795
1878.37	814.5
1876.67	794
1874.96	775
1873.26	787.5
1871.55	786
1869.85	766
1868.14	771.5
1866.44	758
1864.73	731
1863.02	778.5
1861.32	787.5
1859.61	746
1857.9	764
1856.19	726
1854.48	732
1852.77	719.5
1851.06	703
1849.35	711
1847.64	732
1845.93	756.5
1844.21	723.5
1842.5	704
1840.79	722
1839.08	706
1837.36	712.5
1835.65	697
1833.93	730
1832.22	725
1830.5	725
1828.79	715.5
1827.07	657
1825.36	720
1823.64	719.5
1821.92	675
1820.2	721
1818.48	693
1816.77	670.5
1815.05	671
1813.33	685
1811.61	654
1809.89	707.5
1808.16	662
1806.44	647
1804.72	662.5
1803	610.5
1801.28	681
1799.55	640.5
1797.83	648.5
1796.11	656
1794.38	660.5
1792.66	628
1790.93	601
1789.21	602
1787.48	664
1785.75	585
1784.03	614.5
1782.3	606
1780.57	610
1778.84	595.5
1777.11	605
1775.38	627.5
1773.66	634.5
1771.93	593
1770.19	613
1768.46	590
1766.73	611
1765	621
1763.27	623
1761.54	627
1759.8	608
1758.07	598
1756.34	615
1754.6	631
1752.87	621
1751.13	618.5
1749.4	643.5
1747.66	622
1745.92	594
1744.19	606
1742.45	612
1740.71	618
1738.97	622
1737.23	577
1735.49	609
1733.75	596
1732.01	592
1730.27	546
1728.53	590
1726.79	575
1725.05	570
1723.31	558.5
1721.57	529
1719.82	569.5
1718.08	534
1716.34	545
1714.59	553
1712.85	559
1711.1	558.5
1709.36	560.5
1707.61	526
1705.86	550
1704.12	522.5
1702.37	548
1700.62	535
1698.87	517
1697.12	533
1695.37	553
1693.62	540
1691.87	511.5
1690.12	514
1688.37	514.5
1686.62	524
1684.87	515.5
1683.12	521
1681.36	533
1679.61	508
1677.86	512
1676.1	507.5
1674.35	542.5
1672.59	520
1670.84	532
1669.08	555
1667.33	553
1665.57	554
1663.81	562
1662.06	620.5
1660.3	605
1658.54	622
1656.78	604.5
1655.02	628
1653.26	617
1651.5	585
1649.74	532
1647.98	545
1646.22	554
1644.46	493
1642.7	513
1640.93	482.5
1639.17	480
1637.41	481
1635.64	467
1633.88	488.5
1632.11	440
1630.35	468
1628.58	464
1626.81	474.5
1625.05	447
1623.28	435
1621.51	437.5
1619.75	441.5
1617.98	406
1616.21	442
1614.44	417
1612.67	444.5
1610.9	439
1609.13	443.5
1607.36	439
1605.58	426.5
1603.81	420
1602.04	445
1600.27	421.5
1598.49	438
1596.72	436.5
1594.95	425
1593.17	450.5
1591.4	426
1589.62	445
1587.84	424
1586.07	381
1584.29	420
1582.51	445
1580.74	406
1578.96	401.5
1577.18	432.5
1575.4	404
1573.62	444
1571.84	401
1570.06	421
1568.28	396
1566.5	399.5
1564.72	393
1562.93	386
1561.15	409.5
1559.37	412
1557.58	415
1555.8	441
1554.02	397
1552.23	432
1550.45	390
1548.66	392.5
1546.87	400
1545.09	401
1543.3	370
1541.51	412
1539.72	395.5
1537.94	387
1536.15	373
1534.36	402.5
1532.57	379
1530.78	386
1528.99	365
1527.2	353.5
1525.4	353.5
1523.61	364.5
1521.82	384.5
1520.03	379
1518.23	386
1516.44	390
1514.65	381
1512.85	386.5
1511.06	373
1509.26	380.5
1507.46	349
1505.67	386
1503.87	378
1502.07	365
1500.28	352
1498.48	345
1496.68	380.5
1494.88	377
1493.08	386.5
1491.28	402
1489.48	362.5
1487.68	400
1485.88	379
1484.08	392
1482.27	423
1480.47	402.5
1478.67	440.5
1476.86	423
1475.06	458.5
1473.25	471.5
1471.45	466
1469.64	489
1467.84	535
1466.03	550.5
1464.23	577
1462.42	611
1460.61	598
1458.8	628
1456.99	598
1455.18	653.5
1453.37	661
1451.56	663
1449.75	698.5
1447.94	722
1446.13	742
1444.32	753.5
1442.51	790.5
1440.7	741
1438.88	761
1437.07	725
1435.26	672
1433.44	638.5
1431.63	587.5
1429.81	540
1427.99	496
1426.18	450
1424.36	467.5
1422.54	448
1420.73	430
1418.91	419
1417.09	412
1415.27	379.5
1413.45	387
1411.63	363
1409.81	352
1407.99	362
1406.17	368
1404.35	344.5
1402.53	301
1400.7	333
1398.88	378
1397.06	335
1395.23	349.5
1393.41	329.5
1391.58	319
1389.76	307.5
1387.93	294
1386.11	332
1384.28	313
1382.45	326.5
1380.62	346
1378.8	318.5
1376.97	331.5
1375.14	342
1373.31	364
1371.48	374
1369.65	317.5
1367.82	357
1365.99	330.5
1364.16	330
1362.32	347
1360.49	328
1358.66	310
1356.82	341.5
1354.99	311
1353.16	327
1351.32	320
1349.48	339
1347.65	347
1345.81	334
1343.98	334.5
1342.14	331.5
1340.3	325
1338.46	296
1336.62	331
1334.79	339
1332.95	350.5
1331.11	339
1329.27	354
1327.42	374
1325.58	365
1323.74	389.5
1321.9	411.5
1320.06	419
1318.21	418.5
1316.37	450
1314.53	449
1312.68	480
1310.84	493.5
1308.99	522
1307.15	536.5
1305.3	527
1303.45	593
1301.61	578.5
1299.76	547
1297.91	555.5
1296.06	536
1294.21	500
1292.36	445
1290.51	457
1288.66	417
1286.81	403.5
1284.96	423
1283.11	386
1281.26	377
1279.4	404
1277.55	410.5
1275.7	399
1273.84	414
1271.99	387.5
1270.13	407
1268.28	387
1266.42	375
1264.56	411.5
1262.71	386
1260.85	366.5
1258.99	378
1257.13	363
1255.27	378
1253.41	341
1251.56	346
1249.7	363
1247.83	294.5
1245.97	318
1244.11	296
1242.25	257.5
1240.39	330.5
1238.52	294.5
1236.66	289
1234.8	300
1232.93	305
1231.07	274
1229.2	278
1227.34	269
1225.47	273.5
1223.6	277
1221.74	255
1219.87	255
1218	251.5
1216.13	255
1214.26	268
1212.39	295
1210.53	265.5
1208.65	268
1206.78	272
1204.91	252.5
1203.04	251
1201.17	262
1199.3	262
1197.42	246.5
1195.55	267.5
1193.68	261
1191.8	236
1189.93	270.5
1188.05	237
1186.17	253
1184.3	236
1182.42	259
1180.54	208
1178.67	248.5
1176.79	275
1174.91	241.5
1173.03	243
1171.15	261.5
1169.27	260
1167.39	277
1165.51	269
1163.63	285
1161.75	268.5
1159.86	256
1157.98	235
1156.1	258.5
1154.21	249
1152.33	230
1150.44	250.5
1148.56	250
1146.67	269
1144.79	289
1142.9	249
1141.01	271
1139.12	291
1137.24	244
1135.35	294.5
1133.46	307
1131.57	303.5
1129.68	294
1127.79	328.5
1125.9	303.5
1124.01	310.5
1122.12	313
1120.22	300.5
1118.33	311
1116.44	283
1114.54	315
1112.65	289.5
1110.75	300.5
1108.86	327
1106.96	285
1105.07	335.5
1103.17	361
1101.27	357.5
1099.38	356
1097.48	353.5
1095.58	372.5
1093.68	404.5
1091.78	399.5
1089.88	387
1087.98	414.5
1086.08	432
1084.18	424.5
1082.28	430
1080.38	442.5
1078.47	432
1076.57	384
1074.67	429.5
1072.76	400.5
1070.86	395
1068.95	412
1067.05	434
1065.14	414
1063.24	419
1061.33	398
1059.42	351
1057.51	376.5
1055.6	335
1053.7	334
1051.79	340.5
1049.88	315
1047.97	307
1046.06	299
1044.14	335
1042.23	295
1040.32	323
1038.41	321.5
1036.5	287
1034.58	319
1032.67	324
1030.75	323
1028.84	316.5
1026.92	279
1025.01	324.5
1023.09	316.5
1021.17	320
1019.26	321.5
1017.34	304
1015.42	304
1013.5	301.5
1011.58	291
1009.66	279.5
1007.74	256
1005.82	313.5
1003.9	290
1001.98	328
1000.06	308.5
998.134	284
996.212	276
994.288	300
992.364	344.5
990.44	351.5
988.515	358
986.589	335.5
984.663	365
982.737	365.5
980.81	366.5
978.883	369
976.955	387
975.027	383.5
973.098	394
971.169	401.5
969.239	401
967.308	406
965.378	403.5
963.447	408
961.516	407
959.583	364
957.65	397
955.718	425
953.784	396
951.85	420
949.916	413
947.981	430
946.045	444
944.109	429.5
942.173	454
940.236	441
938.298	459.5
936.36	472
934.422	406
932.484	415
930.544	391
928.604	339
926.664	373
924.724	346.5
922.782	354.5
920.84	340.5
918.898	327.5
916.955	329
915.012	322
913.068	296
911.124	326
909.18	317
907.235	325
905.289	322
903.343	342.5
901.397	355
899.45	324
897.502	368.5
895.554	353
893.605	381
891.657	397
889.707	377
887.758	364
885.807	402
883.856	380.5
881.905	343
879.953	368.5
878.001	362
876.048	367
874.094	383
872.14	396
870.186	374
868.232	401
866.276	386
864.321	378
862.365	374.5
860.408	357
858.451	342
856.493	346
854.535	360.5
852.576	378.5
850.617	341
848.658	351
846.698	333
844.737	347.5
842.776	342
840.814	378.5
838.852	325.5
836.89	342.5
834.927	320
832.963	328.5
830.999	302.5
829.035	312
827.07	306
825.105	304
823.139	307
821.172	276
819.206	281.5
817.238	269.5
815.27	252
813.301	273.5
811.333	275.5
809.363	260.5
807.394	251
805.424	260.5
803.453	225.5
801.482	257.5
799.509	248.5
797.538	239
795.565	245
793.592	209.5
791.618	216
789.643	208
787.669	247
785.693	217
783.718	195
781.742	229
779.765	226
777.788	209
775.811	208.5
773.832	234.5
771.853	209
769.875	240
767.895	210.5
765.915	217
763.934	239.5
761.953	205.5
759.972	227
757.99	203
756.007	204.5
754.024	208.5
752.041	204
750.056	210.5
748.072	213
746.087	194
744.102	212.5
742.116	218
740.13	227.5
738.143	199.5
736.155	220
734.167	217
732.179	212
730.19	219.5
728.2	232
726.21	220
724.22	233
722.229	197
720.237	219
718.246	205
716.253	212.5
714.26	228
712.267	199.5
710.273	193
708.279	214
706.284	216
704.289	217.5
702.293	206.5
700.296	220
698.3	207.5
696.303	182.5
694.305	191
692.307	191
690.307	213.5
688.308	198
686.309	208.5
684.308	211
682.308	201
680.306	193
678.304	203
676.302	195.5
674.3	199
672.296	207
670.293	225
668.289	190
666.284	246.5
664.278	201
662.273	242.5
660.266	191
658.26	224.5
656.252	234
654.244	228.5
652.237	234
650.227	217
648.218	249.5
646.209	224.5
644.198	228.5
642.188	237
640.177	244.5
638.165	225
636.153	228.5
634.14	214
632.128	204.5
630.113	238
628.099	232
626.085	232
624.07	241
622.054	241
620.038	257.5
618.021	251
616.004	251.5
613.986	248
611.968	244.5
609.949	253.5
607.93	264.5
605.911	240.5
603.891	268
601.87	244
599.848	246
597.827	262.5
595.805	244
593.782	231.5
591.759	245
589.735	233
587.711	218.5
585.687	246
583.661	230
581.636	239
579.609	203.5
577.583	225
575.555	241
573.527	215
571.5	235
569.471	266.5
567.441	209
565.412	209
563.382	260
561.351	232
559.32	252.5
557.289	254
555.257	250
553.223	260
551.19	288
549.157	310
547.122	316
545.088	333
543.053	309
541.017	367.5
538.981	361
536.943	448.5
534.907	519
532.869	699
530.831	1015
528.792	1490
526.752	2328
524.713	3447
522.673	4240
520.632	4286
518.591	3520.5
516.549	2568
514.507	1738.5
512.464	1136
510.42	792
508.377	591
506.332	479.5
504.288	440
502.242	374
500.196	368.5
498.15	323.5
496.104	350
494.056	322
492.008	308.5
489.96	344
487.911	308.5
485.862	316.5
483.812	295
481.761	302
479.71	293.5
477.659	282
475.607	286.5
473.555	277
471.502	272
469.448	302
467.395	268
465.34	286
463.285	253
461.23	250
459.174	274.5
457.118	263.5
455.061	311
453.003	248.5
450.945	275
448.887	273
446.828	275
444.768	270
442.708	302
440.647	302
438.587	307
436.525	277
434.463	301
432.4	307
430.337	313
428.274	325
426.21	282
424.145	288
422.079	318
420.014	328
417.948	307
415.882	307.5
413.814	296
411.746	313.5
409.679	277
407.609	325
405.54	307.5
403.47	322
401.401	314.5
399.329	314
397.258	323
395.187	315
393.114	296
391.041	303
388.968	320
386.895	330
384.82	335
382.745	306
380.67	319
378.594	321.5
376.517	285
374.44	337.5
372.363	342.5
370.286	335
368.207	354.5
366.128	343.5
364.049	337
361.969	350
359.888	337
357.807	351.5
355.725	356.5
353.643	336
351.561	347.5
349.477	359.5
347.394	363
345.31	356.5
343.226	367.5
341.141	363
339.055	374.5
336.968	377.5
334.882	375
332.795	347
330.707	367.5
328.618	363.5
326.53	405
324.44	407
322.351	392
320.26	408
318.17	447.5
316.078	459.5
313.987	456
311.895	469
309.802	506
307.708	497.5
305.614	522
303.52	550
301.425	522
299.329	489
297.233	486.5
295.137	478
293.039	464
290.942	453
288.844	458
286.745	428
284.647	426
282.546	463
280.446	402.5
278.346	432
276.245	434.5
274.143	443
272.041	419
269.939	451.5
267.835	448
265.731	495.5
263.627	434
261.522	444
259.417	467
257.311	452.5
255.204	465
253.098	422.5
250.99	478
248.882	466.5
246.774	469
244.664	481
242.555	474
240.445	473
238.334	509
236.223	483
234.112	475.5
232	532.5
229.888	468.5
227.775	486
225.661	518
223.546	483
221.431	508
219.316	491
217.201	501
215.084	508.5
212.967	538
210.85	530
208.732	482
206.614	508
204.495	529
202.375	519
200.256	529
198.135	533
196.014	529.5
193.893	528
191.771	512.5
189.648	498
187.525	544.5
185.401	522
183.277	511
181.152	558
179.027	544.5
176.901	545
174.775	558
172.648	559
170.521	568.5
168.393	565
166.265	562
164.136	595
162.007	603.5
159.876	619
157.746	654.5
155.615	605.5
153.483	673
151.351	678
149.219	663
147.086	716
144.952	729
142.818	739
140.684	774.5
138.548	800
136.413	814.5
134.276	808
132.139	865
130.002	889
127.864	934
125.725	958.5
123.587	1009
121.447	1003
119.307	1051
117.166	1124
115.026	1156.5
112.885	1228.5
110.743	1271
108.6	1234
106.456	1275
104.313	1311.5
102.169	1307.5
100.023	1249.5
97.8789	1205
95.7328	1067
93.5869	977.5
91.4392	837.5
89.2919	717.5
87.1447	549.5
84.9959	427
