3528.51	111
3527.23	120
3525.95	153.5
3524.67	133
3523.39	148
3522.1	134.5
3520.82	116.5
3519.54	144
3518.26	154
3516.97	159
3515.69	122
3514.4	132.5
3513.12	139
3511.84	153
3510.55	153.5
3509.26	167.5
3507.98	126
3506.69	151.5
3505.41	153
3504.12	128
3502.83	139
3501.54	147
3500.26	124
3498.97	158
3497.68	152
3496.39	180
3495.1	142
3493.81	177.5
3492.52	153
3491.23	158
3489.94	178.5
3488.65	163
3487.36	168
3486.07	181.5
3484.78	176
3483.49	179
3482.19	190.5
3480.9	177.5
3479.61	194.5
3478.31	195
3477.02	154
3475.73	174
3474.43	178
3473.14	190
3471.84	207.5
3470.54	197
3469.25	163
3467.95	178
3466.66	174
3465.36	192
3464.06	208.5
3462.76	244
3461.46	173
3460.17	201.5
3458.87	218
3457.57	206
3456.27	204.5
3454.97	187.5
3453.67	213.5
3452.37	211.5
3451.07	186
3449.77	199
3448.47	229.5
3447.16	222.5
3445.86	196
3444.56	239
3443.26	265.5
3441.95	244.5
3440.65	241
3439.35	228
3438.04	249
3436.74	236
3435.43	246
3434.13	254.5
3432.82	269.5
3431.52	262
3430.21	249
3428.9	269.5
3427.6	295
3426.29	253
3424.98	290
3423.67	311
3422.36	270
3421.06	266.5
3419.75	300
3418.44	315
3417.13	284.5
3415.82	318
3414.51	307
3413.2	330.5
3411.88	320
3410.57	328
3409.26	334
3407.95	316
3406.64	328
3405.32	342
3404.01	348
3402.7	337.5
3401.38	317
3400.07	348
3398.75	351.5
3397.44	344
3396.12	368
3394.81	304.5
3393.49	356.5
3392.18	354.5
3390.86	312
3389.54	366.5
3388.23	375
3386.91	397.5
3385.59	384.5
3384.27	372
3382.95	379.5
3381.63	371
3380.31	370.5
3378.99	406
3377.67	384.5
3376.35	371
3375.03	401.5
3373.71	427
3372.39	403.5
3371.07	389.5
3369.75	426
3368.42	422.5
3367.1	420
3365.78	423.5
3364.45	467
3363.13	427.5
3361.81	427
3360.48	450
3359.16	438
3357.83	426.5
3356.51	434
3355.18	443
3353.85	451
3352.53	447
3351.2	445
3349.87	455
3348.54	443
3347.22	451
3345.89	454.5
3344.56	491.5
3343.23	489.5
3341.9	452
3340.57	449
3339.24	497
3337.91	441
3336.58	488.5
3335.25	440.5
3333.92	504.5
3332.58	453
3331.25	481
3329.92	435
3328.59	499.5
3327.25	476
3325.92	489.5
3324.58	502
3323.25	506
3321.92	508
3320.58	499.5
3319.25	512.5
3317.91	509
3316.57	526
3315.24	495.5
3313.9	525
3312.56	493
3311.23	510
3309.89	495
3308.55	535
3307.21	499
3305.87	519.5
3304.53	522
3303.19	500
3301.85	526.5
3300.51	518
3299.17	542
3297.83	537.5
3296.49	540.5
3295.15	552
3293.81	565
3292.46	568.5
3291.12	548
3289.78	525
3288.43	561
3287.09	551.5
3285.75	521
3284.4	539
3283.06	602
3281.71	547
3280.37	529
3279.02	566
3277.67	589
3276.33	541
3274.98	613.5
3273.63	578
3272.28	584
3270.94	561
3269.59	583
3268.24	609
3266.89	584
3265.54	591
3264.19	602
3262.84	611.5
3261.49	592
3260.14	582
3258.79	625
3257.44	614
3256.08	649
3254.73	644
3253.38	662
3252.03	682.5
3250.67	683.5
3249.32	634
3247.96	676
3246.61	726.5
3245.26	753.5
3243.9	761
3242.54	755.5
3241.19	779.5
3239.83	793.5
3238.48	821
3237.12	857
3235.76	830
3234.41	880
3233.05	911.5
3231.69	941
3230.33	904
3228.97	954.5
3227.61	967
3226.25	1025.5
3224.89	1018
3223.53	1040
3222.17	1049
3220.81	1118.5
3219.45	1123.5
3218.09	1114
3216.72	1142
3215.36	1186
3214	1166.5
3212.63	1199
3211.27	1237
3209.91	1204
3208.54	1227
3207.18	1262
3205.81	1270
3204.45	1270
3203.08	1269.5
3201.71	1335
3200.35	1314
3198.98	1315
3197.61	1336
3196.25	1311
3194.88	1353
3193.51	1351.5
3192.14	1377
3190.77	1346.5
3189.4	1358.5
3188.03	1366
3186.66	1350.5
3185.29	1383
3183.92	1362.5
3182.55	1371
3181.18	1430
3179.81	1393
3178.44	1413
3177.06	1406.5
3175.69	1429.5
3174.32	1412
3172.94	1455
3171.57	1487.5
3170.2	1470
3168.82	1503.5
3167.45	1490
3166.07	1510.5
3164.69	1490
3163.32	1517
3161.94	1508
3160.56	1575.5
3159.19	1556
3157.81	1568
3156.43	1555.5
3155.05	1588
3153.67	1639.5
3152.3	1625
3150.92	1629
3149.54	1652
3148.16	1634
3146.78	1648.5
3145.4	1627
3144.01	1707
3142.63	1716.5
3141.25	1720.5
3139.87	1730.5
3138.49	1731.5
3137.1	1737.5
3135.72	1745
3134.34	1751
3132.95	1765.5
3131.57	1779
3130.18	1786.5
3128.8	1794.5
3127.41	1802
3126.03	1841
3124.64	1833.5
3123.25	1837
3121.87	1872.5
3120.48	1895.5
3119.09	1907
3117.7	1884
3116.32	1909
3114.93	1875
3113.54	1929.5
3112.15	1959
3110.76	1966.5
3109.37	1960.5
3107.98	1962.5
3106.59	1951.5
3105.2	1977
3103.8	1993
3102.41	2061
3101.02	1986
3099.63	2051
3098.23	2008
3096.84	2047.5
3095.45	2003.5
3094.05	2086
3092.66	2047
3091.26	2070.5
3089.87	2065
3088.47	2071.5
3087.08	2036.5
3085.68	2151
3084.28	2083.5
3082.89	2124
3081.49	2093.5
3080.09	2124
3078.69	2144
3077.3	2140
3075.9	2157
3074.5	2177.5
3073.1	2178
3071.7	2165.5
3070.3	2170.5
3068.9	2140
3067.5	2126.5
3066.09	2127.5
3064.69	2166
3063.29	2189
3061.89	2235.5
3060.48	2212
3059.08	2175
3057.68	2203
3056.27	2190
3054.87	2221
3053.46	2138
3052.06	2206
3050.65	2258.5
3049.25	2218.5
3047.84	2280.5
3046.44	2231
3045.03	2242.5
3043.62	2276.5
3042.21	2249
3040.81	2240.5
3039.4	2285
3037.99	2317
3036.58	2292.5
3035.17	2266.5
3033.76	2330.5
3032.35	2327
3030.94	2323
3029.53	2344
3028.12	2337
3026.71	2294.5
3025.29	2329
3023.88	2395
3022.47	2329.5
3021.06	2326.5
3019.64	2337
3018.23	2336
3016.82	2321.5
3015.4	2337
3013.99	2301.5
3012.57	2415.5
3011.15	2347
3009.74	2349
3008.32	2353.5
3006.91	2350
3005.49	2362
3004.07	2385.5
3002.65	2381.5
3001.24	2435.5
2999.82	2466
2998.4	2425.5
2996.98	2447.5
2995.56	2384.5
2994.14	2435
2992.72	2470
2991.3	2473
2989.88	2454
2988.46	2521.5
2987.03	2537
2985.61	2519
2984.19	2537.5
2982.77	2575
2981.34	2557.5
2979.92	2624.5
2978.49	2572
2977.07	2585
2975.65	2608.5
2974.22	2631
2972.79	2649
2971.37	2647.5
2969.94	2693
2968.52	2696
2967.09	2653
2965.66	2690
2964.23	2705.5
2962.81	2694
2961.38	2682.5
2959.95	2758
2958.52	2767
2957.09	2726.5
2955.66	2761
2954.23	2769.5
2952.8	2764
2951.37	2702
2949.94	2772
2948.5	2785
2947.07	2747.5
2945.64	2796
2944.21	2801
2942.77	2837
2941.34	2801.5
2939.91	2842
2938.47	2829
2937.04	2860.5
2935.6	2873.5
2934.17	2896
2932.73	2872.5
2931.29	2942.5
2929.86	2868.5
2928.42	2896
2926.98	3019
2925.55	2974
2924.11	2922.5
2922.67	2951.5
2921.23	2991.5
2919.79	3004
2918.35	2964.5
2916.91	2952
2915.47	3001
2914.03	3032
2912.59	2946
2911.15	3056.5
2909.71	3068
2908.26	3005
2906.82	3019
2905.38	3052
2903.94	3036.5
2902.49	3053
2901.05	3081
2899.6	3106
2898.16	3039
2896.71	3041.5
2895.27	3052
2893.82	3052
2892.38	3116.5
2890.93	3039
2889.48	3054
2888.03	3079.5
2886.59	2997
2885.14	3072.5
2883.69	3083
2882.24	3051
2880.79	3045
2879.34	3078
2877.89	3098.5
2876.44	3035
2874.99	3096
2873.54	3111
2872.09	3065
2870.64	3085
2869.18	3098
2867.73	3103.5
2866.28	3158.5
2864.83	3140.5
2863.37	3142
2861.92	3120
2860.46	3114
2859.01	3119
2857.55	3122
2856.1	3148.5
2854.64	3102
2853.19	3122
2851.73	3129
2850.27	3114.5
2848.81	3146.5
2847.36	3149
2845.9	3155
2844.44	3114
2842.98	3058
2841.52	3063
2840.06	3090
2838.6	3041.5
2837.14	3031.5
2835.68	3042.5
2834.22	3064
2832.76	3023.5
2831.3	3023.5
2829.83	3011.5
2828.37	2984.5
2826.91	3019
2825.44	3026
2823.98	2996.5
2822.52	3023
2821.05	3029
2819.59	2977.5
2818.12	2977.5
2816.66	2929
2815.19	2919.5
2813.72	2934
2812.26	2891.5
2810.79	2922.5
2809.32	2908
2807.85	2885.5
2806.38	2884
2804.92	2908.5
2803.45	2888.5
2801.98	2865
2800.51	2948
2799.04	2935.5
2797.57	2875.5
2796.1	2885
2794.62	2877.5
2793.15	2876
2791.68	2909.5
2790.21	2899
2788.73	2902
2787.26	2856
2785.79	2914
2784.31	2891.5
2782.84	2838.5
2781.36	2903
2779.89	2899.5
2778.41	2871
2776.94	2894
2775.46	2863
2773.99	2897.5
2772.51	2864.5
2771.03	2856
2769.55	2836
2768.07	2923.5
2766.6	2887.5
2765.12	2886
2763.64	2862
2762.16	2842
2760.68	2887.5
2759.2	2867.5
2757.72	2851.5
2756.24	2931
2754.75	2892
2753.27	2824.5
2751.79	2866.5
2750.31	2859.5
2748.82	2801
2747.34	2849.5
2745.86	2825
2744.37	2842
2742.89	2884
2741.4	2851
2739.92	2803
2738.43	2839
2736.94	2793.5
2735.46	2803
2733.97	2830
2732.48	2815
2731	2836.5
2729.51	2862
2728.02	2857.5
2726.53	2842
2725.04	2806.5
2723.55	2863
2722.06	2827.5
2720.57	2779
2719.08	2817
2717.59	2826.5
2716.1	2922.5
2714.61	2831
2713.11	2848.5
2711.62	2846.5
2710.13	2793.5
2708.64	2816
2707.14	2823.5
2705.65	2853
2704.15	2843.5
2702.66	2821
2701.16	2777
2699.67	2797.5
2698.17	2799
2696.67	2764
2695.18	2747.5
2693.68	2804.5
2692.18	2750.5
2690.69	2791.5
2689.19	2815.5
2687.69	2745
2686.19	2715
2684.69	2720.5
2683.19	2716
2681.69	2715
2680.19	2718
2678.69	2766
2677.19	2708.5
2675.68	2671.5
2674.18	2758.5
2672.68	2732
2671.18	2721
2669.67	2660.5
2668.17	2694
2666.66	2703
2665.16	2732.5
2663.66	2664
2662.15	2695
2660.64	2671
2659.14	2740.5
2657.63	2600
2656.13	2692.5
2654.62	2635
2653.11	2685
2651.6	2606.5
2650.09	2674.5
2648.58	2666
2647.08	2674.5
2645.57	2643
2644.06	2650.5
2642.55	2681
2641.04	2677
2639.52	2622
2638.01	2631
2636.5	2600
2634.99	2596.5
2633.48	2612.5
2631.96	2574.5
2630.45	2583
2628.94	2587
2627.42	2544
2625.91	2549.5
2624.39	2591
2622.88	2576.5
2621.36	2617.5
2619.85	2582
2618.33	2549
2616.81	2584.5
2615.3	2577
2613.78	2573
2612.26	2566.5
2610.74	2567.5
2609.22	2531
2607.7	2570
2606.18	2482.5
2604.66	2525.5
2603.14	2504
2601.62	2454.5
2600.1	2495.5
2598.58	2489
2597.06	2501.5
2595.54	2485
2594.01	2461.5
2592.49	2458.5
2590.97	2544
2589.44	2455.5
2587.92	2468.5
2586.39	2465
2584.87	2417.5
2583.34	2456.5
2581.82	2472
2580.29	2528
2578.76	2386
2577.24	2470
2575.71	2478
2574.18	2416
2572.65	2386
2571.13	2413.5
2569.6	2408
2568.07	2435
2566.54	2415
2565.01	2429.5
2563.48	2409
2561.95	2406
2560.42	2409
2558.88	2390
2557.35	2380.5
2555.82	2396
2554.29	2386.5
2552.75	2308.5
2551.22	2395.5
2549.69	2369
2548.15	2357.5
2546.62	2347.5
2545.08	2330
2543.55	2354
2542.01	2304
2540.47	2323
2538.94	2346
2537.4	2292.5
2535.86	2326
2534.33	2306
2532.79	2284.5
2531.25	2307.5
2529.71	2272
2528.17	2224
2526.63	2252
2525.09	2270.5
2523.55	2260.5
2522.01	2279
2520.47	2275.5
2518.92	2260
2517.38	2267.5
2515.84	2262.5
2514.3	2238
2512.75	2214
2511.21	2207
2509.67	2205.5
2508.12	2190.5
2506.58	2223
2505.03	2190
2503.49	2203.5
2501.94	2169
2500.39	2149
2498.85	2153
2497.3	2162.5
2495.75	2093
2494.2	2110.5
2492.65	2079.5
2491.11	2085.5
2489.56	2113.5
2488.01	2105
2486.46	2093.5
2484.91	2059.5
2483.36	2067.5
2481.8	2067
2480.25	2082
2478.7	2037.5
2477.15	2059.5
2475.6	2037.5
2474.04	2010.5
2472.49	1998.5
2470.93	2048.5
2469.38	2040
2467.83	2018
2466.27	2016
2464.71	2045.5
2463.16	2001.5
2461.6	1986
2460.05	1958.5
2458.49	1934.5
2456.93	2000
2455.37	1940.5
2453.81	1940
2452.26	1964.5
2450.7	1971
2449.14	1883
2447.58	1935.5
2446.02	1898
2444.46	1913
2442.9	1896.5
2441.33	1908.5
2439.77	1944.5
2438.21	1911.5
2436.65	1855
2435.08	1879.5
2433.52	1860.5
2431.96	1840.5
2430.39	1810
2428.83	1813.5
2427.26	1835
2425.7	1823.5
2424.13	1861.5
2422.56	1826
2421	1837.5
2419.43	1844
2417.86	1795
2416.3	1822
2414.73	1785.5
2413.16	1812
2411.59	1778.5
2410.02	1801
2408.45	1717
2406.88	1770
2405.31	1832.5
2403.74	1772
2402.17	1741.5
2400.6	1773
2399.02	1763.5
2397.45	1741.5
2395.88	1721.5
2394.3	1705.5
2392.73	1753.5
2391.16	1723.5
2389.58	1722.5
2388.01	1749
2386.43	1710
2384.86	1768
2383.28	1721
2381.7	1734.5
2380.13	1730.5
2378.55	1737.5
2376.97	1753
2375.39	1721.5
2373.81	1717
2372.23	1684.5
2370.65	1692.5
2369.07	1690
2367.49	1669
2365.91	1657.5
2364.33	1682.5
2362.75	1681
2361.17	1682
2359.59	1655.5
2358.01	1641
2356.42	1634.5
2354.84	1686
2353.25	1624
2351.67	1595
2350.09	1610
2348.5	1631
2346.92	1590
2345.33	1605
2343.74	1610
2342.16	1613
2340.57	1611
2338.98	1665
2337.39	1594
2335.81	1615
2334.22	1629
2332.63	1631
2331.04	1609
2329.45	1593
2327.86	1623.5
2326.27	1592.5
2324.68	1568.5
2323.09	1605
2321.49	1592.5
2319.9	1584.5
2318.31	1569
2316.72	1527.5
2315.12	1569
2313.53	1528
2311.93	1533
2310.34	1526
2308.74	1558.5
2307.15	1517
2305.55	1532
2303.96	1508.5
2302.36	1511
2300.76	1507.5
2299.17	1508.5
2297.57	1506.5
2295.97	1484
2294.37	1496
2292.77	1448.5
2291.17	1462
2289.57	1490.5
2287.97	1479.5
2286.37	1440.5
2284.77	1438
2283.17	1459
2281.57	1455
2279.96	1475.5
2278.36	1440.5
2276.76	1446.5
2275.15	1401
2273.55	1382.5
2271.95	1398
2270.34	1370
2268.74	1434
2267.13	1402.5
2265.52	1428.5
2263.92	1372.5
2262.31	1351
2260.7	1341
2259.1	1378
2257.49	1386.5
2255.88	1358.5
2254.27	1341.5
2252.66	1378
2251.05	1345.5
2249.44	1327
2247.83	1343
2246.22	1353
2244.61	1350
2243	1339
2241.39	1337.5
2239.77	1322.5
2238.16	1329
2236.55	1319.5
2234.93	1283
2233.32	1308.5
2231.7	1275
2230.09	1293.5
2228.47	1294.5
2226.86	1263
2225.24	1269.5
2223.63	1298.5
2222.01	1290.5
2220.39	1249
2218.77	1258.5
2217.16	1260.5
2215.54	1231
2213.92	1225
2212.3	1261.5
2210.68	1230
2209.06	1226
2207.44	1196
2205.82	1223.5
2204.19	1199.5
2202.57	1189
2200.95	1204
2199.33	1206.5
2197.7	1190.5
2196.08	1199
2194.46	1169.5
2192.83	1180.5
2191.21	1171
2189.58	1178.5
2187.96	1164
2186.33	1185.5
2184.7	1188
2183.08	1163.5
2181.45	1135
2179.82	1144
2178.19	1167
2176.57	1153.5
2174.94	1179
2173.31	1142.5
2171.68	1122
2170.05	1110
2168.42	1141.5
2166.79	1113
2165.16	1117
2163.52	1090
2161.89	1123.5
2160.26	1162.5
2158.63	1127
2156.99	1133
2155.36	1141.5
2153.73	1097.5
2152.09	1104.5
2150.46	1091.5
2148.82	1082.5
2147.18	1127
2145.55	1077.5
2143.91	1036
2142.27	1120
2140.64	1061.5
2139	1086.5
2137.36	1069.5
2135.72	1024.5
2134.08	1056.5
2132.44	1037
2130.8	1024
2129.16	995
2127.52	998.5
2125.88	1027
2124.24	993
2122.6	937
2120.95	994
2119.31	994
2117.67	984
2116.02	974
2114.38	991
2112.74	983
2111.09	963
2109.45	991.5
2107.8	968.5
2106.15	971
2104.51	971
2102.86	956
2101.21	922
2099.56	966.5
2097.92	914
2096.27	932.5
2094.62	942.5
2092.97	935
2091.32	935.5
2089.67	926
2088.02	912.5
2086.37	918
2084.72	889
2083.06	917
2081.41	921
2079.76	932
2078.1	921.5
2076.45	919.5
2074.8	879.5
2073.14	868.5
2071.49	922
2069.83	880
2068.18	903.5
2066.52	870
2064.86	909.5
2063.21	872.5
2061.55	873.5
2059.89	834.5
2058.23	899.5
2056.57	879
2054.92	862
2053.26	869
2051.6	880.5
2049.94	870.5
2048.27	827
2046.61	871.5
2044.95	885
2043.29	868
2041.63	845
2039.97	854
2038.3	888.5
2036.64	845
2034.97	844.5
2033.31	865.5
2031.64	845
2029.98	823
2028.31	814
2026.65	848
2024.98	845
2023.31	823.5
2021.65	819.5
2019.98	788
2018.31	786
2016.64	823.5
2014.97	795
2013.3	790
2011.63	813.5
2009.96	788
2008.29	777
2006.62	789
2004.95	785
2003.28	733
2001.6	795.5
1999.93	771
1998.26	758
1996.58	770
1994.91	745
1993.24	773.5
1991.56	764
1989.89	765
1988.21	754
1986.53	723
1984.86	769.5
1983.18	760
1981.5	725.5
1979.82	737.5
1978.15	729.5
1976.47	724
1974.79	712
1973.11	728
1971.43	747.5
1969.75	744
1968.07	744.5
1966.38	702
1964.7	733
1963.02	767.5
1961.34	739
1959.66	721.5
1957.97	721
1956.29	699
1954.6	736
1952.92	732
1951.23	694.5
1949.55	682.5
1947.86	682.5
1946.18	694
1944.49	707
1942.8	677
1941.11	709
1939.43	673.5
1937.74	696
1936.05	701.5
1934.36	657.5
1932.67	677
1930.98	649
1929.29	667.5
1927.6	632
1925.91	656
1924.21	654.5
1922.52	633
1920.83	610
1919.14	658.5
1917.44	695
1915.75	649
1914.05	613
1912.36	646.5
1910.66	622.5
1908.97	637.5
1907.27	630
1905.58	619
1903.88	591.5
1902.18	598
1900.48	586
1898.79	615
1897.09	620
1895.39	587
1893.69	630
1891.99	594.5
1890.29	580
1888.59	596
1886.89	579.5
1885.18	573.5
1883.48	603
1881.78	579
1880.08	552
1878.37	578
1876.67	588.5
1874.96	544.5
1873.26	570.5
1871.55	535
1869.85	521
1868.14	556
1866.44	583
1864.73	565
1863.02	561.5
1861.32	550
1859.61	560
1857.9	535
1856.19	549
1854.48	542.5
1852.77	565
1851.06	540
1849.35	531
1847.64	531
1845.93	549
1844.21	514.5
1842.5	535
1840.79	536
1839.08	520
1837.36	517
1835.65	521.5
1833.93	517
1832.22	501.5
1830.5	535.5
1828.79	487.5
1827.07	500
1825.36	545.5
1823.64	512
1821.92	492.5
1820.2	512.5
1818.48	495.5
1816.77	484.5
1815.05	478.5
1813.33	494.5
1811.61	480.5
1809.89	492.5
1808.16	502.5
1806.44	528.5
1804.72	468.5
1803	487
1801.28	476
1799.55	485
1797.83	485
1796.11	486
1794.38	493.5
1792.66	487
1790.93	448
1789.21	441.5
1787.48	483
1785.75	474
1784.03	462
1782.3	460
1780.57	443.5
1778.84	453
1777.11	445
1775.38	459
1773.66	462.5
1771.93	467
1770.19	435
1768.46	452
1766.73	449.5
1765	456.5
1763.27	455.5
1761.54	483
1759.8	467
1758.07	472.5
1756.34	498
1754.6	480.5
1752.87	486
1751.13	452
1749.4	480
1747.66	491
1745.92	484
1744.19	482
1742.45	501.5
1740.71	468
1738.97	496
1737.23	456
1735.49	457.5
1733.75	459.5
1732.01	430
1730.27	410
1728.53	450.5
1726.79	431
1725.05	409
1723.31	432.5
1721.57	441
1719.82	414.5
1718.08	445.5
1716.34	416
1714.59	413.5
1712.85	457
1711.1	420
1709.36	410.5
1707.61	405.5
1705.86	395
1704.12	433.5
1702.37	450.5
1700.62	392
1698.87	417
1697.12	384
1695.37	409
1693.62	361
1691.87	408
1690.12	405.5
1688.37	414
1686.62	397
1684.87	388.5
1683.12	402
1681.36	395.5
1679.61	394.5
1677.86	399
1676.1	394
1674.35	397
1672.59	417.5
1670.84	410.5
1669.08	450
1667.33	420.5
1665.57	461
1663.81	467.5
1662.06	484
1660.3	520.5
1658.54	534
1656.78	538.5
1655.02	499
1653.26	480
1651.5	459.5
1649.74	475
1647.98	446
1646.22	402.5
1644.46	398.5
1642.7	398.5
1640.93	402
1639.17	373
1637.41	386
1635.64	376
1633.88	341.5
1632.11	377.5
1630.35	376
1628.58	350
1626.81	373.5
1625.05	340
1623.28	343.5
1621.51	338
1619.75	372.5
1617.98	346
1616.21	358
1614.44	342
1612.67	353.5
1610.9	346.5
1609.13	333
1607.36	342.5
1605.58	350
1603.81	349.5
1602.04	333.5
1600.27	333
1598.49	317
1596.72	335.5
1594.95	334
1593.17	321
1591.4	327
1589.62	332.5
1587.84	325.5
1586.07	316
1584.29	315.5
1582.51	346.5
1580.74	318
1578.96	337.5
1577.18	352
1575.4	304.5
1573.62	310
1571.84	348.5
1570.06	339
1568.28	333.5
1566.5	315
1564.72	325
1562.93	346.5
1561.15	326
1559.37	316
1557.58	368.5
1555.8	355
1554.02	345
1552.23	334
1550.45	290.5
1548.66	330
1546.87	322.5
1545.09	315
1543.3	318.5
1541.51	326
1539.72	309
1537.94	301
1536.15	315.5
1534.36	294
1532.57	307.5
1530.78	340.5
1528.99	292.5
1527.2	307
1525.4	316.5
1523.61	297
1521.82	307
1520.03	295.5
1518.23	302
1516.44	301
1514.65	331
1512.85	315
1511.06	321
1509.26	317
1507.46	310
1505.67	278
1503.87	259
1502.07	325
1500.28	325.5
1498.48	331.5
1496.68	299
1494.88	327
1493.08	332
1491.28	327
1489.48	311
1487.68	319.5
1485.88	305.5
1484.08	329
1482.27	387.5
1480.47	348
1478.67	361
1476.86	338
1475.06	378.5
1473.25	410
1471.45	435.5
1469.64	468.5
1467.84	472
1466.03	504
1464.23	510
1462.42	564
1460.61	594.5
1458.8	552
1456.99	586.5
1455.18	628.5
1453.37	625
1451.56	631.5
1449.75	666
1447.94	659
1446.13	680
1444.32	703
1442.51	682
1440.7	770
1438.88	715
1437.07	684
1435.26	646
1433.44	591
1431.63	523
1429.81	489
1427.99	440
1426.18	437
1424.36	399
1422.54	381.5
1420.73	404
1418.91	354
1417.09	369
1415.27	347.5
1413.45	346.5
1411.63	345
1409.81	337
1407.99	335
1406.17	298
1404.35	310.5
1402.53	289.5
1400.7	297.5
1398.88	322
1397.06	279
1395.23	308.5
1393.41	268
1391.58	279
1389.76	278.5
1387.93	307.5
1386.11	307
1384.28	300
1382.45	321
1380.62	287
1378.8	337
1376.97	299
1375.14	304
1373.31	284
1371.48	324.5
1369.65	300.5
1367.82	304
1365.99	275
1364.16	300
1362.32	294
1360.49	305
1358.66	281.5
1356.82	297.5
1354.99	298.5
1353.16	293.5
1351.32	286
1349.48	298.5
1347.65	307.5
1345.81	295
1343.98	311
1342.14	317.5
1340.3	322.5
1338.46	311.5
1336.62	313
1334.79	292
1332.95	309
1331.11	326
1329.27	291
1327.42	340
1325.58	366.5
1323.74	380.5
1321.9	370
1320.06	396.5
1318.21	393
1316.37	425
1314.53	433.5
1312.68	468.5
1310.84	503
1308.99	539
1307.15	505
1305.3	529
1303.45	548.5
1301.61	560
1299.76	581.5
1297.91	539
1296.06	516
1294.21	481.5
1292.36	458
1290.51	424.5
1288.66	426.5
1286.81	371
1284.96	404.5
1283.11	372
1281.26	396
1279.4	348
1277.55	378.5
1275.7	356
1273.84	408.5
1271.99	403.5
1270.13	368
1268.28	392
1266.42	369
1264.56	352
1262.71	381
1260.85	388.5
1258.99	367
1257.13	345.5
1255.27	364
1253.41	362
1251.56	308
1249.7	284.5
1247.83	293.5
1245.97	320
1244.11	280
1242.25	275
1240.39	307.5
1238.52	301
1236.66	298
1234.8	288
1232.93	284.5
1231.07	256
1229.2	273.5
1227.34	235
1225.47	257.5
1223.6	278
1221.74	269.5
1219.87	235
1218	275
1216.13	274
1214.26	227
1212.39	270
1210.53	243
1208.65	227
1206.78	247.5
1204.91	250
1203.04	244.5
1201.17	243
1199.3	249
1197.42	259
1195.55	242
1193.68	266.5
1191.8	230
1189.93	271
1188.05	237.5
1186.17	235
1184.3	229.5
1182.42	240
1180.54	231
1178.67	242.5
1176.79	269.5
1174.91	224
1173.03	230
1171.15	265.5
1169.27	266.5
1167.39	253
1165.51	259.5
1163.63	249
1161.75	224
1159.86	244
1157.98	236
1156.1	268
1154.21	268.5
1152.33	248
1150.44	255
1148.56	264
1146.67	280
1144.79	256
1142.9	251
1141.01	246
1139.12	253.5
1137.24	287
1135.35	268
1133.46	291.5
1131.57	293.5
1129.68	308
1127.79	311
1125.9	350
1124.01	313
1122.12	331.5
1120.22	348
1118.33	334
1116.44	297
1114.54	305
1112.65	299
1110.75	309.5
1108.86	324
1106.96	329
1105.07	338
1103.17	336
1101.27	337.5
1099.38	380
1097.48	363
1095.58	382
1093.68	398
1091.78	413
1089.88	429
1087.98	416
1086.08	408
1084.18	446.5
1082.28	466
1080.38	411
1078.47	429
1076.57	444
1074.67	433
1072.76	401
1070.86	420
1068.95	431
1067.05	457.5
1065.14	456
1063.24	450.5
1061.33	420
1059.42	420.5
1057.51	358
1055.6	359.5
1053.7	350.5
1051.79	346
1049.88	339.5
1047.97	305
1046.06	319.5
1044.14	314
1042.23	344
1040.32	309
1038.41	352.5
1036.5	317
1034.58	322
1032.67	368
1030.75	326
1028.84	312
1026.92	306
1025.01	340
1023.09	305
1021.17	332.5
1019.26	352
1017.34	342.5
1015.42	329.5
1013.5	315
1011.58	316
1009.66	330
1007.74	321
1005.82	360
1003.9	340
1001.98	316.5
1000.06	302
998.134	327
996.212	315.5
994.288	308
992.364	343.5
990.44	365
988.515	380.5
986.589	401
984.663	390
982.737	358
980.81	398
978.883	401
976.955	409
975.027	458
973.098	401
971.169	436
969.239	446.5
967.308	432
965.378	448.5
963.447	410
961.516	425
959.583	452.5
957.65	441
955.718	455.5
953.784	467
951.85	504.5
949.916	474.5
947.981	481.5
946.045	491
944.109	485
942.173	483
940.236	497
938.298	489
936.36	490.5
934.422	465.5
932.484	491.5
930.544	431.5
928.604	405
926.664	399
924.724	365
922.782	348.5
920.84	341
918.898	359.5
916.955	386
915.012	360
913.068	352
911.124	366
909.18	349.5
907.235	349.5
905.289	347
903.343	361
901.397	373
899.45	393
897.502	374
895.554	386
893.605	397
891.657	396
889.707	418
887.758	399
885.807	409.5
883.856	373
881.905	393
879.953	410.5
878.001	418.5
876.048	413
874.094	409
872.14	421
870.186	408
868.232	395
866.276	411
864.321	420.5
862.365	395
860.408	378.5
858.451	423
856.493	390.5
854.535	383
852.576	395.5
850.617	430
848.658	399
846.698	368
844.737	403
842.776	409
840.814	362
838.852	404
836.89	403.5
834.927	372
832.963	374
830.999	340
829.035	342
827.07	323.5
825.105	318
823.139	320
821.172	326.5
819.206	304.5
817.238	327
815.27	302.5
813.301	325
811.333	295.5
809.363	311
807.394	289
805.424	297.5
803.453	287.5
801.482	278.5
799.509	283.5
797.538	277
795.565	265.5
793.592	224
791.618	268
789.643	256.5
787.669	243
785.693	273.5
783.718	256
781.742	252.5
779.765	229
777.788	277.5
775.811	265.5
773.832	240
771.853	243
769.875	256
767.895	277
765.915	211
763.934	243
761.953	216
759.972	274.5
757.99	232
756.007	248
754.024	232.5
752.041	220.5
750.056	252.5
748.072	252
746.087	225
744.102	227
742.116	254.5
740.13	228
738.143	254
736.155	254
734.167	234
732.179	253
730.19	275
728.2	225
726.21	250.5
724.22	274.5
722.229	244
720.237	228
718.246	253
716.253	247.5
714.26	230
712.267	226
710.273	239.5
708.279	238
706.284	230
704.289	258.5
702.293	236
700.296	257
698.3	211
696.303	251
694.305	235
692.307	238
690.307	255
688.308	246
686.309	254
684.308	248.5
682.308	244.5
680.306	240
678.304	280.5
676.302	255.5
674.3	244
672.296	231
670.293	284
668.289	253
666.284	210.5
664.278	252
662.273	314.5
660.266	271
658.26	243
656.252	263
654.244	264.5
652.237	225
650.227	265
648.218	259
646.209	256
644.198	256
642.188	298.5
640.177	287
638.165	286.5
636.153	241.5
634.14	242
632.128	287.5
630.113	294
628.099	276.5
626.085	273
624.07	292
622.054	291.5
620.038	297.5
618.021	290.5
616.004	289.5
613.986	309
611.968	294.5
609.949	290
607.93	297
605.911	294.5
603.891	293
601.87	297
599.848	290
597.827	277.5
595.805	274.5
593.782	320.5
591.759	220
589.735	274.5
587.711	303
585.687	277.5
583.661	263.5
581.636	272
579.609	261.5
577.583	273
575.555	275.5
573.527	276
571.5	337
569.471	285.5
567.441	252
565.412	290
563.382	305
561.351	296
559.32	269
557.289	298
555.257	338.5
553.223	330.5
551.19	339.5
549.157	337
547.122	387
545.088	381.5
543.053	378
541.017	438
538.981	426
536.943	513
534.907	634
532.869	812.5
530.831	1101.5
528.792	1620.5
526.752	2500
524.713	3818.5
522.673	4944
520.632	5154.5
518.591	4285
516.549	3220.5
514.507	2119
512.464	1396
510.42	998.5
508.377	701
506.332	581.5
504.288	520.5
502.242	471
500.196	433.5
498.15	439
496.104	393
494.056	428
492.008	374
489.96	355.5
487.911	391
485.862	338.5
483.812	353.5
481.761	357.5
479.71	359
477.659	342.5
475.607	365
473.555	347.5
471.502	362
469.448	352
467.395	362
465.34	330.5
463.285	345
461.23	333.5
459.174	343
457.118	344.5
455.061	366.5
453.003	323.5
450.945	376
448.887	372.5
446.828	344
444.768	370
442.708	372.5
440.647	374.5
438.587	368.5
436.525	353
434.463	337.5
432.4	388
430.337	365
428.274	370.5
426.21	368.5
424.145	394.5
422.079	387
420.014	364.5
417.948	352
415.882	380
413.814	357
411.746	376.5
409.679	389
407.609	393.5
405.54	384
403.47	414.5
401.401	404.5
399.329	357.5
397.258	420
395.187	389.5
393.114	409.5
391.041	374.5
388.968	390
386.895	396
384.82	394
382.745	397
380.67	373.5
378.594	361
376.517	415
374.44	376
372.363	447.5
370.286	392
368.207	397
366.128	440
364.049	410
361.969	440
359.888	412
357.807	433
355.725	469.5
353.643	434
351.561	393
349.477	445
347.394	409
345.31	442.5
343.226	410.5
341.141	440.5
339.055	412.5
336.968	468
334.882	432.5
332.795	487.5
330.707	470
328.618	459.5
326.53	512
324.44	485
322.351	485
320.26	507
318.17	508
316.078	517
313.987	548.5
311.895	549
309.802	607
307.708	655
305.614	605.5
303.52	610
301.425	633
299.329	636
297.233	577.5
295.137	582
293.039	551
290.942	535
288.844	540
286.745	559
284.647	519
282.546	538
280.446	525.5
278.346	541
276.245	541.5
274.143	551
272.041	528
269.939	536
267.835	563.5
265.731	553
263.627	552
261.522	535.5
259.417	563
257.311	539
255.204	559
253.098	601.5
250.99	575.5
248.882	557
246.774	583
244.664	551
242.555	568.5
240.445	583
238.334	617.5
236.223	618
234.112	601
232	612
229.888	598
227.775	621
225.661	605
223.546	611
221.431	612.5
219.316	635
217.201	649
215.084	630
212.967	622.5
210.85	671
208.732	631.5
206.614	631
204.495	656
202.375	687.5
200.256	641
198.135	653
196.014	664
193.893	649
191.771	626
189.648	665.5
187.525	699.5
185.401	674
183.277	656
181.152	655
179.027	680
176.901	663
174.775	695
172.648	717
170.521	717
168.393	710.5
166.265	735
164.136	728
162.007	738
159.876	741
157.746	775.5
155.615	801
153.483	823.5
151.351	813
149.219	864.5
147.086	856.5
144.952	910
142.818	849
140.684	913
138.548	980
136.413	986
134.276	1017.5
132.139	1041
130.002	1110.5
127.864	1138
125.725	1203
123.587	1234.5
121.447	1225.5
119.307	1253
117.166	1313
115.026	1381
112.885	1419
110.743	1489.5
108.6	1497.5
106.456	1529
104.313	1586
102.169	1564.5
100.023	1536.5
97.8789	1455
95.7328	1323
93.5869	1234
91.4392	1078
89.2919	877.5
87.1447	731.5
84.9959	605
