3528.51	174.25
3527.23	213.25
3525.95	200
3524.67	224
3523.39	204.75
3522.1	215.75
3520.82	205.25
3519.54	218.5
3518.26	212.5
3516.97	210
3515.69	214.25
3514.4	229.75
3513.12	206
3511.84	201.25
3510.55	223.75
3509.26	223.75
3507.98	222.5
3506.69	223.25
3505.41	239.75
3504.12	231.25
3502.83	246.5
3501.54	252
3500.26	240
3498.97	248.75
3497.68	260.5
3496.39	253
3495.1	265.75
3493.81	248.25
3492.52	255
3491.23	266.25
3489.94	260.75
3488.65	280.75
3487.36	249.25
3486.07	272.25
3484.78	265
3483.49	273.5
3482.19	255.25
3480.9	293
3479.61	280
3478.31	285.25
3477.02	300.75
3475.73	301.5
3474.43	327.75
3473.14	333.5
3471.84	302
3470.54	319.25
3469.25	331.5
3467.95	315
3466.66	316
3465.36	323.5
3464.06	307.5
3462.76	316.5
3461.46	345.5
3460.17	337.25
3458.87	332
3457.57	331.5
3456.27	357.5
3454.97	366.5
3453.67	312
3452.37	342.25
3451.07	343
3449.77	362.75
3448.47	337.5
3447.16	357.75
3445.86	359
3444.56	366.25
3443.26	383
3441.95	374
3440.65	393.5
3439.35	397.75
3438.04	396.75
3436.74	404.5
3435.43	421
3434.13	414.5
3432.82	421.5
3431.52	442.25
3430.21	443.25
3428.9	465
3427.6	453.25
3426.29	478
3424.98	439.25
3423.67	499.75
3422.36	494.5
3421.06	511
3419.75	485
3418.44	472.25
3417.13	482.5
3415.82	500
3414.51	521
3413.2	498.5
3411.88	523.5
3410.57	536
3409.26	526
3407.95	539.25
3406.64	532.5
3405.32	552.75
3404.01	548.5
3402.7	541
3401.38	559.25
3400.07	532.75
3398.75	538.75
3397.44	561.5
3396.12	563.5
3394.81	584.5
3393.49	574.25
3392.18	596.25
3390.86	577
3389.54	584
3388.23	566.5
3386.91	620.75
3385.59	601.75
3384.27	620
3382.95	621.25
3381.63	601.25
3380.31	644.75
3378.99	621.25
3377.67	636
3376.35	652
3375.03	677
3373.71	632.75
3372.39	659.75
3371.07	671.5
3369.75	668
3368.42	652.75
3367.1	672
3365.78	696.25
3364.45	676.75
3363.13	698.25
3361.81	718.75
3360.48	699
3359.16	697
3357.83	699.75
3356.51	747.5
3355.18	708
3353.85	713.25
3352.53	730.75
3351.2	737.75
3349.87	748.75
3348.54	730.5
3347.22	727.75
3345.89	749.75
3344.56	757
3343.23	724
3341.9	747.5
3340.57	764
3339.24	730.25
3337.91	697.5
3336.58	766
3335.25	773.75
3333.92	747.5
3332.58	767.5
3331.25	787.25
3329.92	756.25
3328.59	775.75
3327.25	779.25
3325.92	782
3324.58	779.5
3323.25	769.5
3321.92	800
3320.58	812
3319.25	785
3317.91	806.25
3316.57	828.5
3315.24	830.5
3313.9	811.75
3312.56	817
3311.23	840.5
3309.89	844.25
3308.55	825.5
3307.21	856.75
3305.87	846.25
3304.53	842.25
3303.19	857.75
3301.85	853
3300.51	865
3299.17	864.5
3297.83	870.25
3296.49	849.75
3295.15	868.25
3293.81	854.5
3292.46	845.75
3291.12	893
3289.78	895
3288.43	869.25
3287.09	891
3285.75	882
3284.4	890.25
3283.06	879.75
3281.71	933.75
3280.37	901
3279.02	928.75
3277.67	910.75
3276.33	932.5
3274.98	945.75
3273.63	929
3272.28	924.5
3270.94	971.25
3269.59	944.5
3268.24	961
3266.89	1013.75
3265.54	987.5
3264.19	1021.25
3262.84	1013.5
3261.49	1026.25
3260.14	1051
3258.79	1083
3257.44	1094
3256.08	1144.5
3254.73	1131
3253.38	1139.25
3252.03	1175.25
3250.67	1209.75
3249.32	1235.25
3247.96	1264.75
3246.61	1294.5
3245.26	1307
3243.9	1374.75
3242.54	1399.5
3241.19	1446
3239.83	1465
3238.48	1544
3237.12	1568
3235.76	1591.5
3234.41	1623.75
3233.05	1683.5
3231.69	1688.75
3230.33	1687.25
3228.97	1770.5
3227.61	1764.75
3226.25	1804
3224.89	1833
3223.53	1908.75
3222.17	1848.5
3220.81	1917.75
3219.45	1930.25
3218.09	1967.25
3216.72	1957.25
3215.36	1990.5
3214	2006.5
3212.63	2040.5
3211.27	2036.5
3209.91	2032.75
3208.54	2056
3207.18	2073
3205.81	2078
3204.45	2130.75
3203.08	2119.25
3201.71	2109.75
3200.35	2140
3198.98	2160.25
3197.61	2155
3196.25	2152.75
3194.88	2176
3193.51	2162.5
3192.14	2191
3190.77	2218.75
3189.4	2226
3188.03	2232.75
3186.66	2203
3185.29	2234.75
3183.92	2274.75
3182.55	2289.25
3181.18	2315
3179.81	2316.25
3178.44	2311
3177.06	2343.5
3175.69	2317.25
3174.32	2354.25
3172.94	2350.25
3171.57	2412.75
3170.2	2430.25
3168.82	2408.5
3167.45	2421.25
3166.07	2492.25
3164.69	2498.25
3163.32	2547
3161.94	2528.75
3160.56	2530.25
3159.19	2511
3157.81	2581.25
3156.43	2620.25
3155.05	2623.25
3153.67	2636.5
3152.3	2645.75
3150.92	2714.75
3149.54	2683
3148.16	2731.75
3146.78	2721.5
3145.4	2775.5
3144.01	2761.75
3142.63	2795.75
3141.25	2817
3139.87	2828.5
3138.49	2853.25
3137.1	2850.5
3135.72	2862
3134.34	2895.25
3132.95	2915.25
3131.57	2942
3130.18	2951
3128.8	2934.5
3127.41	2982.5
3126.03	3003
3124.64	3048.75
3123.25	3002.75
3121.87	3061.5
3120.48	3103
3119.09	3097
3117.7	3102
3116.32	3129.25
3114.93	3157.5
3113.54	3150
3112.15	3156.75
3110.76	3242.5
3109.37	3217.75
3107.98	3173
3106.59	3219.5
3105.2	3198.5
3103.8	3224.5
3102.41	3197.25
3101.02	3234
3099.63	3258.25
3098.23	3283.25
3096.84	3288
3095.45	3357
3094.05	3322.25
3092.66	3329.25
3091.26	3302.5
3089.87	3357.25
3088.47	3360.25
3087.08	3378.5
3085.68	3370.75
3084.28	3378
3082.89	3390
3081.49	3433
3080.09	3432.5
3078.69	3447.75
3077.3	3472.25
3075.9	3472
3074.5	3491.75
3073.1	3499.5
3071.7	3480.25
3070.3	3480.5
3068.9	3487.25
3067.5	3492
3066.09	3518.5
3064.69	3498.25
3063.29	3525.5
3061.89	3524.25
3060.48	3540
3059.08	3573.5
3057.68	3563
3056.27	3575
3054.87	3581
3053.46	3615.25
3052.06	3647.5
3050.65	3659.25
3049.25	3629.5
3047.84	3629.25
3046.44	3667.75
3045.03	3648
3043.62	3682.5
3042.21	3692.75
3040.81	3704.25
3039.4	3767.25
3037.99	3756.75
3036.58	3744.25
3035.17	3730.5
3033.76	3760.5
3032.35	3784.5
3030.94	3756.25
3029.53	3757.75
3028.12	3780.5
3026.71	3769.75
3025.29	3834
3023.88	3741.5
3022.47	3823.75
3021.06	3832.5
3019.64	3838.75
3018.23	3811.25
3016.82	3828.25
3015.4	3870
3013.99	3852.5
3012.57	3830.75
3011.15	3864
3009.74	3859.75
3008.32	3866.25
3006.91	3848.5
3005.49	3867
3004.07	3956.25
3002.65	3905.75
3001.24	3926.25
2999.82	3967.75
2998.4	3972.75
2996.98	3974.5
2995.56	4000
2994.14	4061.25
2992.72	4056
2991.3	4090.5
2989.88	4082
2988.46	4153.25
2987.03	4117.5
2985.61	4178.75
2984.19	4202.25
2982.77	4239.75
2981.34	4258
2979.92	4285.5
2978.49	4292.25
2977.07	4298
2975.65	4358.5
2974.22	4303.25
2972.79	4362
2971.37	4409.75
2969.94	4363.75
2968.52	4360.5
2967.09	4425.5
2965.66	4426.25
2964.23	4432.25
2962.81	4444.5
2961.38	4446
2959.95	4457.5
2958.52	4508.25
2957.09	4496.25
2955.66	4579
2954.23	4533.25
2952.8	4457.5
2951.37	4530.25
2949.94	4523.25
2948.5	4572.75
2947.07	4567
2945.64	4566.5
2944.21	4562.5
2942.77	4617
2941.34	4625.5
2939.91	4636.75
2938.47	4691
2937.04	4681
2935.6	4647.75
2934.17	4747.5
2932.73	4741.25
2931.29	4766.5
2929.86	4775.25
2928.42	4811.75
2926.98	4864.25
2925.55	4818.25
2924.11	4800
2922.67	4857
2921.23	4853.75
2919.79	4823.75
2918.35	4809.5
2916.91	4906.25
2915.47	4877.75
2914.03	4850.25
2912.59	4849.75
2911.15	4937.5
2909.71	4894.5
2908.26	4966.25
2906.82	4924
2905.38	4969
2903.94	4975
2902.49	4960.5
2901.05	5034.75
2899.6	5010.75
2898.16	4988.75
2896.71	4996.5
2895.27	5049.25
2893.82	4954.5
2892.38	5012.25
2890.93	5091.25
2889.48	5028
2888.03	4988.25
2886.59	5055.5
2885.14	5096
2883.69	5038
2882.24	5032.25
2880.79	5082
2879.34	5037.25
2877.89	5080.75
2876.44	5002
2874.99	5091
2873.54	5113
2872.09	5087.25
2870.64	5060.5
2869.18	5050.25
2867.73	5032.75
2866.28	5093.75
2864.83	5122.25
2863.37	5062.5
2861.92	5058.75
2860.46	5087.25
2859.01	5135
2857.55	5120
2856.1	5086
2854.64	5071
2853.19	5121.5
2851.73	5116.25
2850.27	5128.25
2848.81	5139
2847.36	5059.25
2845.9	5117.5
2844.44	5093
2842.98	5064.75
2841.52	5091.25
2840.06	5003.75
2838.6	5020
2837.14	4918.25
2835.68	4953.5
2834.22	4998.25
2832.76	4923
2831.3	4950.25
2829.83	4933
2828.37	4917.5
2826.91	4882
2825.44	4927.75
2823.98	4919.25
2822.52	4865.25
2821.05	4829
2819.59	4858.25
2818.12	4825
2816.66	4818
2815.19	4816
2813.72	4857.75
2812.26	4798.5
2810.79	4768
2809.32	4756.75
2807.85	4762.75
2806.38	4815.75
2804.92	4728
2803.45	4758.25
2801.98	4807.75
2800.51	4747.25
2799.04	4777.25
2797.57	4846.25
2796.1	4751.5
2794.62	4698.25
2793.15	4692.25
2791.68	4724.25
2790.21	4759.25
2788.73	4716.75
2787.26	4710.5
2785.79	4679.25
2784.31	4773
2782.84	4726.25
2781.36	4703.75
2779.89	4736.5
2778.41	4768
2776.94	4753
2775.46	4752.75
2773.99	4738.75
2772.51	4792.25
2771.03	4787.5
2769.55	4801.5
2768.07	4811.75
2766.6	4803
2765.12	4783.5
2763.64	4813.25
2762.16	4799
2760.68	4735.5
2759.2	4778.25
2757.72	4776.5
2756.24	4740.5
2754.75	4756.75
2753.27	4789
2751.79	4769.25
2750.31	4751.25
2748.82	4719.5
2747.34	4733.5
2745.86	4733.75
2744.37	4759.75
2742.89	4742.75
2741.4	4744.25
2739.92	4707.25
2738.43	4748.25
2736.94	4723.75
2735.46	4724.5
2733.97	4768.5
2732.48	4773
2731	4777.5
2729.51	4780
2728.02	4741.5
2726.53	4718
2725.04	4679.5
2723.55	4755
2722.06	4725
2720.57	4755.5
2719.08	4664.75
2717.59	4733
2716.1	4706.5
2714.61	4718.75
2713.11	4680.5
2711.62	4703.25
2710.13	4714.25
2708.64	4716
2707.14	4726
2705.65	4714
2704.15	4659.5
2702.66	4652.75
2701.16	4645.75
2699.67	4655.25
2698.17	4629
2696.67	4664.5
2695.18	4656.5
2693.68	4697
2692.18	4669.5
2690.69	4629.5
2689.19	4608.5
2687.69	4566.5
2686.19	4624.25
2684.69	4632.5
2683.19	4609
2681.69	4537
2680.19	4543
2678.69	4606.75
2677.19	4532
2675.68	4557
2674.18	4529.75
2672.68	4542.75
2671.18	4524
2669.67	4533.25
2668.17	4534.25
2666.66	4523.75
2665.16	4531.75
2663.66	4483.25
2662.15	4521.75
2660.64	4505
2659.14	4504
2657.63	4497
2656.13	4477
2654.62	4528.5
2653.11	4441.25
2651.6	4471
2650.09	4466.5
2648.58	4469.25
2647.08	4450.5
2645.57	4466.25
2644.06	4413
2642.55	4411.5
2641.04	4392.5
2639.52	4405.25
2638.01	4423
2636.5	4337
2634.99	4332
2633.48	4354.25
2631.96	4361
2630.45	4355.5
2628.94	4312.5
2627.42	4316.25
2625.91	4310.75
2624.39	4301.75
2622.88	4242.5
2621.36	4287.5
2619.85	4347.25
2618.33	4308
2616.81	4270.5
2615.3	4284
2613.78	4267.5
2612.26	4221.25
2610.74	4244.75
2609.22	4279
2607.7	4217.25
2606.18	4246.75
2604.66	4212.5
2603.14	4201.5
2601.62	4210.25
2600.1	4115.75
2598.58	4136
2597.06	4114.5
2595.54	4054.75
2594.01	4132.25
2592.49	4090.75
2590.97	4124.75
2589.44	4114.25
2587.92	4132.75
2586.39	4145
2584.87	4087
2583.34	4092.5
2581.82	4080.25
2580.29	4081.5
2578.76	4088.25
2577.24	4100.75
2575.71	4020.5
2574.18	4043
2572.65	4019
2571.13	4071.5
2569.6	4019.75
2568.07	4057
2566.54	4014.25
2565.01	4100.5
2563.48	4050.75
2561.95	3955.5
2560.42	4014.75
2558.88	4035.25
2557.35	4009
2555.82	3937.5
2554.29	3968.5
2552.75	3972.75
2551.22	3917.25
2549.69	3958.25
2548.15	3891.25
2546.62	3898
2545.08	3910.25
2543.55	3922
2542.01	3883.5
2540.47	3848.75
2538.94	3859.75
2537.4	3847
2535.86	3823.75
2534.33	3855
2532.79	3797.25
2531.25	3837.25
2529.71	3812.25
2528.17	3782.75
2526.63	3762.75
2525.09	3808
2523.55	3781
2522.01	3729.75
2520.47	3751.25
2518.92	3724.75
2517.38	3725.25
2515.84	3726.25
2514.3	3689.5
2512.75	3695.25
2511.21	3652.5
2509.67	3628.25
2508.12	3624.5
2506.58	3659.5
2505.03	3658.25
2503.49	3643
2501.94	3626.5
2500.39	3592.25
2498.85	3608.25
2497.3	3640
2495.75	3599.75
2494.2	3596
2492.65	3556
2491.11	3528.25
2489.56	3532.75
2488.01	3536
2486.46	3500.25
2484.91	3462.75
2483.36	3525
2481.8	3472.5
2480.25	3425.75
2478.7	3433.5
2477.15	3447.75
2475.6	3426.25
2474.04	3408.25
2472.49	3368
2470.93	3386.5
2469.38	3345.5
2467.83	3335
2466.27	3347
2464.71	3290.25
2463.16	3307
2461.6	3288.5
2460.05	3302.25
2458.49	3262.5
2456.93	3238.5
2455.37	3263.75
2453.81	3208.5
2452.26	3250
2450.7	3184
2449.14	3150.5
2447.58	3169.25
2446.02	3158
2444.46	3124
2442.9	3132.75
2441.33	3152.5
2439.77	3118.25
2438.21	3102.75
2436.65	3100.75
2435.08	3110.25
2433.52	3104.5
2431.96	3105.5
2430.39	3077.25
2428.83	3063.5
2427.26	3055.5
2425.7	3069.5
2424.13	3028
2422.56	3078.5
2421	3024.5
2419.43	3016.5
2417.86	2995.5
2416.3	3011.25
2414.73	3013
2413.16	3009.25
2411.59	3006.5
2410.02	2974.5
2408.45	2968.5
2406.88	2967
2405.31	2974.25
2403.74	2961.5
2402.17	2974.75
2400.6	2965.5
2399.02	2941.75
2397.45	2975.25
2395.88	2943
2394.3	2869
2392.73	2922.5
2391.16	2935.75
2389.58	2888.5
2388.01	2896.5
2386.43	2951
2384.86	2887
2383.28	2928.5
2381.7	2924.75
2380.13	2877.5
2378.55	2880.75
2376.97	2878.25
2375.39	2871.5
2373.81	2860.75
2372.23	2869
2370.65	2898.75
2369.07	2872.5
2367.49	2860.75
2365.91	2831.25
2364.33	2808.25
2362.75	2844.5
2361.17	2802.5
2359.59	2782.75
2358.01	2825.25
2356.42	2811.75
2354.84	2753
2353.25	2775.5
2351.67	2791.75
2350.09	2758.5
2348.5	2770.5
2346.92	2771.75
2345.33	2786
2343.74	2786.25
2342.16	2728
2340.57	2733
2338.98	2758
2337.39	2754.25
2335.81	2697.75
2334.22	2692.75
2332.63	2674.25
2331.04	2648
2329.45	2702.75
2327.86	2691.75
2326.27	2664.25
2324.68	2702.5
2323.09	2674.75
2321.49	2691.75
2319.9	2644.25
2318.31	2648.75
2316.72	2644
2315.12	2593.5
2313.53	2610.5
2311.93	2609.5
2310.34	2611
2308.74	2563.25
2307.15	2556.25
2305.55	2545.5
2303.96	2540.25
2302.36	2507.25
2300.76	2558.5
2299.17	2558.75
2297.57	2505
2295.97	2530.25
2294.37	2491.5
2292.77	2525.5
2291.17	2514.75
2289.57	2486.75
2287.97	2506
2286.37	2510.5
2284.77	2475.25
2283.17	2481.5
2281.57	2431.75
2279.96	2472.75
2278.36	2451.25
2276.76	2456.5
2275.15	2466.5
2273.55	2449.75
2271.95	2391.25
2270.34	2408
2268.74	2434.5
2267.13	2382
2265.52	2400.25
2263.92	2368.5
2262.31	2334.25
2260.7	2331.5
2259.1	2312.75
2257.49	2328.5
2255.88	2341
2254.27	2316.75
2252.66	2317.5
2251.05	2336.25
2249.44	2297
2247.83	2319.5
2246.22	2298.75
2244.61	2315
2243	2305.25
2241.39	2285.75
2239.77	2281.25
2238.16	2291
2236.55	2257.25
2234.93	2263
2233.32	2293.25
2231.7	2243.25
2230.09	2191.25
2228.47	2168.5
2226.86	2218.75
2225.24	2216.75
2223.63	2228.25
2222.01	2198.75
2220.39	2156.5
2218.77	2189
2217.16	2163.5
2215.54	2129.75
2213.92	2083.25
2212.3	2143
2210.68	2091.5
2209.06	2117
2207.44	2104.25
2205.82	2098
2204.19	2109.75
2202.57	2113.75
2200.95	2047.5
2199.33	2121.75
2197.7	2052.25
2196.08	2081
2194.46	2088.75
2192.83	2069.75
2191.21	2050
2189.58	2037
2187.96	2028.75
2186.33	2069
2184.7	2054.75
2183.08	2010.25
2181.45	2035.25
2179.82	2015.75
2178.19	1941.25
2176.57	1995
2174.94	2003.75
2173.31	1973.25
2171.68	1982.75
2170.05	1970.5
2168.42	1964.75
2166.79	1943.5
2165.16	1904.5
2163.52	1925.5
2161.89	1911
2160.26	1927.5
2158.63	1921.5
2156.99	1938
2155.36	1877
2153.73	1913.75
2152.09	1913
2150.46	1881
2148.82	1880.75
2147.18	1831.5
2145.55	1834.75
2143.91	1852
2142.27	1861.5
2140.64	1832.25
2139	1821
2137.36	1792
2135.72	1825.75
2134.08	1785.25
2132.44	1808
2130.8	1806.25
2129.16	1748
2127.52	1763.75
2125.88	1729
2124.24	1727.5
2122.6	1720.5
2120.95	1730
2119.31	1747.5
2117.67	1702.25
2116.02	1709
2114.38	1712
2112.74	1705.5
2111.09	1684.5
2109.45	1692.25
2107.8	1649.25
2106.15	1681
2104.51	1670.5
2102.86	1624
2101.21	1669.5
2099.56	1657
2097.92	1641.75
2096.27	1648
2094.62	1640
2092.97	1640.75
2091.32	1645.25
2089.67	1618.25
2088.02	1645.5
2086.37	1616.25
2084.72	1613
2083.06	1597.5
2081.41	1633.75
2079.76	1578
2078.1	1599.5
2076.45	1607.75
2074.8	1610
2073.14	1583.25
2071.49	1556.75
2069.83	1598.75
2068.18	1528.75
2066.52	1535.25
2064.86	1551.5
2063.21	1589
2061.55	1566.75
2059.89	1531.5
2058.23	1530.75
2056.57	1513
2054.92	1536.75
2053.26	1530.25
2051.6	1519.25
2049.94	1568.5
2048.27	1503.25
2046.61	1490.5
2044.95	1475
2043.29	1510.5
2041.63	1479.5
2039.97	1501
2038.3	1507.5
2036.64	1441.75
2034.97	1442
2033.31	1454.5
2031.64	1444.5
2029.98	1473.5
2028.31	1414
2026.65	1402.25
2024.98	1398
2023.31	1398
2021.65	1413.5
2019.98	1395.75
2018.31	1391.25
2016.64	1386.25
2014.97	1377.25
2013.3	1343.25
2011.63	1382.5
2009.96	1368.25
2008.29	1386.5
2006.62	1339.75
2004.95	1362.5
2003.28	1346
2001.6	1327.5
1999.93	1308.25
1998.26	1333
1996.58	1356.5
1994.91	1338.75
1993.24	1304.5
1991.56	1313
1989.89	1325.25
1988.21	1317
1986.53	1306
1984.86	1313.75
1983.18	1301.25
1981.5	1295.25
1979.82	1316.75
1978.15	1273.5
1976.47	1266
1974.79	1283.25
1973.11	1253
1971.43	1254.25
1969.75	1243.75
1968.07	1224.5
1966.38	1253.5
1964.7	1238.25
1963.02	1238.75
1961.34	1207
1959.66	1217.5
1957.97	1242
1956.29	1230.5
1954.6	1198.5
1952.92	1228
1951.23	1203.5
1949.55	1186
1947.86	1158
1946.18	1194.25
1944.49	1181.75
1942.8	1160.5
1941.11	1141.75
1939.43	1137.25
1937.74	1178
1936.05	1118.5
1934.36	1175.75
1932.67	1136.5
1930.98	1132.25
1929.29	1118.25
1927.6	1113.5
1925.91	1111.5
1924.21	1121.5
1922.52	1101.25
1920.83	1079.25
1919.14	1097.5
1917.44	1083.5
1915.75	1095
1914.05	1099.5
1912.36	1101.5
1910.66	1066
1908.97	1090.25
1907.27	1076.25
1905.58	1068.5
1903.88	1046.25
1902.18	1047
1900.48	1060.5
1898.79	1052.75
1897.09	1049
1895.39	1038.5
1893.69	1039.75
1891.99	1065.5
1890.29	1018.5
1888.59	990.25
1886.89	1016.75
1885.18	1027.75
1883.48	994.75
1881.78	987
1880.08	984.25
1878.37	957.75
1876.67	951.5
1874.96	965
1873.26	962.75
1871.55	947
1869.85	964.75
1868.14	924.5
1866.44	959.25
1864.73	965.25
1863.02	949.5
1861.32	955.25
1859.61	935.5
1857.9	912
1856.19	925
1854.48	923
1852.77	917
1851.06	925.5
1849.35	922.25
1847.64	906.25
1845.93	920
1844.21	913.25
1842.5	912
1840.79	894.5
1839.08	880.5
1837.36	885.25
1835.65	895.25
1833.93	893.25
1832.22	884.25
1830.5	883.5
1828.79	887.5
1827.07	853
1825.36	864.5
1823.64	866.5
1821.92	836.25
1820.2	827
1818.48	832.75
1816.77	829.5
1815.05	838.5
1813.33	829
1811.61	833.75
1809.89	822.75
1808.16	819.5
1806.44	828.5
1804.72	840.25
1803	808.5
1801.28	787.75
1799.55	808.25
1797.83	825.25
1796.11	825.25
1794.38	796.25
1792.66	807.75
1790.93	796.25
1789.21	789.25
1787.48	760
1785.75	768.5
1784.03	776.75
1782.3	770
1780.57	775.25
1778.84	734
1777.11	783
1775.38	777.25
1773.66	783.75
1771.93	780.25
1770.19	745
1768.46	766.75
1766.73	769.5
1765	792
1763.27	782.25
1761.54	740.5
1759.8	766.25
1758.07	810
1756.34	821.75
1754.6	798
1752.87	811.5
1751.13	814.75
1749.4	866.25
1747.66	854.75
1745.92	809.5
1744.19	814.5
1742.45	802.75
1740.71	788
1738.97	788.5
1737.23	761
1735.49	757
1733.75	762.5
1732.01	738.75
1730.27	729
1728.53	706.25
1726.79	725
1725.05	709
1723.31	685
1721.57	720.5
1719.82	714.25
1718.08	701.25
1716.34	691.75
1714.59	702.5
1712.85	679.5
1711.1	669.5
1709.36	689
1707.61	674.25
1705.86	677.25
1704.12	621
1702.37	645.5
1700.62	639.75
1698.87	651.25
1697.12	651
1695.37	631.75
1693.62	658.75
1691.87	648.75
1690.12	636.5
1688.37	627.25
1686.62	636
1684.87	627.75
1683.12	646.75
1681.36	636.75
1679.61	634.75
1677.86	664
1676.1	647.75
1674.35	657.75
1672.59	660.5
1670.84	706.5
1669.08	751.25
1667.33	737.5
1665.57	783.5
1663.81	848.5
1662.06	882.75
1660.3	927.75
1658.54	972.25
1656.78	954.25
1655.02	912
1653.26	896.5
1651.5	820.75
1649.74	779.75
1647.98	755.75
1646.22	709.75
1644.46	690.5
1642.7	643.75
1640.93	644.5
1639.17	634.25
1637.41	635.5
1635.64	624.5
1633.88	598.5
1632.11	578
1630.35	590.75
1628.58	588.25
1626.81	604.5
1625.05	572.25
1623.28	599.75
1621.51	528.25
1619.75	560.25
1617.98	557
1616.21	551.75
1614.44	562.5
1612.67	531.5
1610.9	553
1609.13	545
1607.36	523
1605.58	533.5
1603.81	574.75
1602.04	529.75
1600.27	551.5
1598.49	540.75
1596.72	517.5
1594.95	517.75
1593.17	538
1591.4	502.5
1589.62	536.25
1587.84	523.5
1586.07	544
1584.29	551.25
1582.51	518.5
1580.74	497.25
1578.96	533.75
1577.18	504.25
1575.4	509.75
1573.62	525.5
1571.84	510.75
1570.06	516
1568.28	507
1566.5	500.5
1564.72	503.75
1562.93	497.25
1561.15	512.5
1559.37	509.5
1557.58	502.25
1555.8	475
1554.02	503.75
1552.23	502.5
1550.45	510.25
1548.66	454.5
1546.87	483.25
1545.09	467
1543.3	498.25
1541.51	477.75
1539.72	470
1537.94	476.75
1536.15	461.5
1534.36	464.75
1532.57	480.5
1530.78	455.75
1528.99	473
1527.2	464.25
1525.4	455.25
1523.61	469.25
1521.82	467.5
1520.03	461.75
1518.23	463
1516.44	490.5
1514.65	459.75
1512.85	477.25
1511.06	496
1509.26	479.25
1507.46	501.5
1505.67	468.75
1503.87	476
1502.07	499.25
1500.28	441
1498.48	473.25
1496.68	457
1494.88	507.25
1493.08	501.75
1491.28	478.75
1489.48	511.25
1487.68	474.25
1485.88	525
1484.08	532.25
1482.27	531.5
1480.47	558.25
1478.67	581.75
1476.86	622.5
1475.06	628
1473.25	656.25
1471.45	692.5
1469.64	741.5
1467.84	771.5
1466.03	825.25
1464.23	857
1462.42	906.75
1460.61	945
1458.8	975.25
1456.99	1009.5
1455.18	1029.25
1453.37	1056.75
1451.56	1096
1449.75	1121.75
1447.94	1189.75
1446.13	1191.5
1444.32	1234.75
1442.51	1271.25
1440.7	1256.5
1438.88	1197
1437.07	1143.75
1435.26	1062.25
1433.44	953.25
1431.63	855
1429.81	797.25
1427.99	708.25
1426.18	658.25
1424.36	601.25
1422.54	624.75
1420.73	597
1418.91	542.75
1417.09	524.25
1415.27	514.5
1413.45	501.25
1411.63	487.5
1409.81	494
1407.99	472.75
1406.17	463.75
1404.35	476.75
1402.53	461.25
1400.7	433.25
1398.88	438.75
1397.06	426
1395.23	417.25
1393.41	437.75
1391.58	420.75
1389.76	420.5
1387.93	423
1386.11	414.25
1384.28	405.25
1382.45	441.5
1380.62	412
1378.8	425.75
1376.97	432.75
1375.14	447.75
1373.31	475
1371.48	463.25
1369.65	426.5
1367.82	461.25
1365.99	435.25
1364.16	438
1362.32	429.25
1360.49	457
1358.66	427
1356.82	417
1354.99	435.5
1353.16	424.75
1351.32	434.5
1349.48	439.5
1347.65	438
1345.81	448.5
1343.98	443
1342.14	433.5
1340.3	432.5
1338.46	470
1336.62	424
1334.79	484.5
1332.95	471
1331.11	487.5
1329.27	500
1327.42	521.25
1325.58	552.5
1323.74	559.5
1321.9	599.25
1320.06	601
1318.21	633.75
1316.37	661.25
1314.53	689.75
1312.68	750.75
1310.84	789.75
1308.99	833.25
1307.15	868.5
1305.3	922
1303.45	931.75
1301.61	951.5
1299.76	905.5
1297.91	879.5
1296.06	840.5
1294.21	755.5
1292.36	723.5
1290.51	696
1288.66	644.25
1286.81	626.5
1284.96	637
1283.11	647.25
1281.26	632.25
1279.4	615.75
1277.55	627
1275.7	657.5
1273.84	653
1271.99	651.75
1270.13	657.75
1268.28	659
1266.42	671
1264.56	650
1262.71	626.5
1260.85	619.75
1258.99	609.25
1257.13	589.75
1255.27	550.5
1253.41	563.5
1251.56	529
1249.7	507.5
1247.83	501.25
1245.97	466.75
1244.11	449.25
1242.25	450.25
1240.39	448
1238.52	423.5
1236.66	391.75
1234.8	414.5
1232.93	422.25
1231.07	376.5
1229.2	423.5
1227.34	392
1225.47	390.25
1223.6	377.25
1221.74	378
1219.87	361
1218	389.25
1216.13	366.25
1214.26	359.25
1212.39	377.5
1210.53	353.75
1208.65	369.75
1206.78	347.75
1204.91	384.25
1203.04	336.75
1201.17	356.25
1199.3	360
1197.42	362.25
1195.55	334.75
1193.68	345
1191.8	356.75
1189.93	347.25
1188.05	338.25
1186.17	327.5
1184.3	362.5
1182.42	345
1180.54	351.5
1178.67	356
1176.79	359.75
1174.91	337.25
1173.03	360.25
1171.15	323.25
1169.27	360.5
1167.39	333.25
1165.51	348.5
1163.63	339
1161.75	343.5
1159.86	341.75
1157.98	323.25
1156.1	361
1154.21	335
1152.33	351.25
1150.44	344
1148.56	355.75
1146.67	371.5
1144.79	363
1142.9	343
1141.01	357
1139.12	356.5
1137.24	379
1135.35	395
1133.46	453.25
1131.57	457
1129.68	456.5
1127.79	473.25
1125.9	510.25
1124.01	492.25
1122.12	485
1120.22	455.75
1118.33	466.25
1116.44	462
1114.54	473
1112.65	457.75
1110.75	441.75
1108.86	469.5
1106.96	480.5
1105.07	509.75
1103.17	502.5
1101.27	552
1099.38	566
1097.48	560.75
1095.58	578.5
1093.68	609.75
1091.78	635.5
1089.88	658.25
1087.98	643.25
1086.08	678
1084.18	695
1082.28	680.75
1080.38	663.25
1078.47	664.5
1076.57	670.5
1074.67	698.25
1072.76	643.25
1070.86	650.75
1068.95	688.5
1067.05	659
1065.14	709
1063.24	673.5
1061.33	644.5
1059.42	588
1057.51	526.25
1055.6	516.75
1053.7	535.25
1051.79	493
1049.88	502.25
1047.97	489.5
1046.06	480
1044.14	452
1042.23	467.5
1040.32	515.75
1038.41	470.25
1036.5	443.5
1034.58	459
1032.67	492.5
1030.75	452.75
1028.84	462.25
1026.92	443
1025.01	464.75
1023.09	468.25
1021.17	482.75
1019.26	444.5
1017.34	479
1015.42	462.5
1013.5	461
1011.58	469.75
1009.66	431
1007.74	420.25
1005.82	414
1003.9	463
1001.98	418.25
1000.06	424.75
998.134	432.75
996.212	454.5
994.288	425
992.364	458.25
990.44	469
988.515	476.5
986.589	484
984.663	504.75
982.737	497.25
980.81	545.5
978.883	571
976.955	574.25
975.027	576
973.098	600.25
971.169	568.25
969.239	571.75
967.308	618.75
965.378	579
963.447	587
961.516	573.5
959.583	591.5
957.65	580.5
955.718	614.75
953.784	594
951.85	593.5
949.916	593.75
947.981	622.75
946.045	617.75
944.109	637.75
942.173	621.5
940.236	629
938.298	636
936.36	579.25
934.422	589.5
932.484	572
930.544	581
928.604	541.75
926.664	522.5
924.724	529.5
922.782	511.75
920.84	517.5
918.898	530.5
916.955	526.25
915.012	542.25
913.068	535.5
911.124	534.25
909.18	550.5
907.235	519.75
905.289	518
903.343	535
901.397	561.5
899.45	548.5
897.502	583.75
895.554	584.75
893.605	606
891.657	591
889.707	633
887.758	616.5
885.807	590.75
883.856	596.75
881.905	608.75
879.953	610.25
878.001	613.25
876.048	617.75
874.094	633
872.14	628.75
870.186	610.25
868.232	630.25
866.276	604.75
864.321	617.75
862.365	609.75
860.408	571
858.451	610
856.493	612.25
854.535	568.5
852.576	573.75
850.617	587.25
848.658	581.25
846.698	582.5
844.737	578.25
842.776	582.25
840.814	583.25
838.852	564.25
836.89	553.75
834.927	521
832.963	493.5
830.999	488.5
829.035	487.5
827.07	470.75
825.105	453.75
823.139	447.25
821.172	461.25
819.206	423
817.238	423.75
815.27	405.25
813.301	395.5
811.333	410.75
809.363	410.25
807.394	365
805.424	394.25
803.453	357
801.482	335.5
799.509	352
797.538	333.75
795.565	350.5
793.592	335.25
791.618	323.5
789.643	321.75
787.669	307.75
785.693	337.25
783.718	334.75
781.742	319.75
779.765	330
777.788	322
775.811	328
773.832	289.75
771.853	314.25
769.875	315.5
767.895	308.5
765.915	306
763.934	341
761.953	313.5
759.972	303.25
757.99	316.75
756.007	316
754.024	329
752.041	313.5
750.056	284.5
748.072	310.25
746.087	300.75
744.102	278.5
742.116	327.75
740.13	312
738.143	330.5
736.155	311
734.167	337.5
732.179	317.25
730.19	368.75
728.2	310
726.21	298.5
724.22	353.25
722.229	318
720.237	357.5
718.246	305.75
716.253	316
714.26	276
712.267	330.25
710.273	296.75
708.279	311.75
706.284	287.5
704.289	301
702.293	287.5
700.296	293.5
698.3	275.5
696.303	276.25
694.305	277.25
692.307	289.5
690.307	266.25
688.308	289.5
686.309	288.5
684.308	264.5
682.308	287.5
680.306	278.5
678.304	261
676.302	275
674.3	294
672.296	290
670.293	299
668.289	284.5
666.284	299
664.278	303.75
662.273	290.25
660.266	281
658.26	282
656.252	305
654.244	316.25
652.237	293
650.227	279.25
648.218	302
646.209	293.25
644.198	293
642.188	306.5
640.177	319
638.165	308.25
636.153	307
634.14	304.5
632.128	324.75
630.113	333.25
628.099	312
626.085	308
624.07	344.5
622.054	337
620.038	321.5
618.021	343.5
616.004	343
613.986	325.25
611.968	308.5
609.949	371
607.93	342
605.911	358.75
603.891	366
601.87	339.25
599.848	356.25
597.827	337.5
595.805	325
593.782	356.25
591.759	346.75
589.735	317.75
587.711	332.25
585.687	330
583.661	330.5
581.636	332.5
579.609	311.75
577.583	337
575.555	300
573.527	315
571.5	350.75
569.471	335
567.441	318.5
565.412	344
563.382	324.75
561.351	356.5
559.32	342
557.289	342.75
555.257	342.5
553.223	352.25
551.19	359
549.157	377
547.122	380
545.088	425.25
543.053	439.75
541.017	464.25
538.981	515.5
536.943	606.75
534.907	708
532.869	919
530.831	1268.5
528.792	1846.25
526.752	2794
524.713	3996
522.673	4841.25
520.632	4678.5
518.591	3803
516.549	2777.75
514.507	1899.25
512.464	1247.25
510.42	902
508.377	732.5
506.332	631
504.288	541.5
502.242	500
500.196	508.25
498.15	450.5
496.104	453
494.056	464
492.008	434.75
489.96	423.75
487.911	419.75
485.862	431
483.812	439.5
481.761	427.75
479.71	401
477.659	431.75
475.607	426.75
473.555	399.75
471.502	435
469.448	401.5
467.395	433
465.34	414
463.285	403.5
461.23	417.25
459.174	432.25
457.118	423.25
455.061	409.5
453.003	395
450.945	444.5
448.887	443
446.828	438.75
444.768	433
442.708	424.75
440.647	456.75
438.587	425.75
436.525	436.75
434.463	431.75
432.4	444
430.337	448.5
428.274	462.25
426.21	463.5
424.145	453.75
422.079	443.5
420.014	487.75
417.948	481.5
415.882	476.5
413.814	472
411.746	472.75
409.679	493
407.609	493.5
405.54	491.25
403.47	493
401.401	487.25
399.329	511.25
397.258	484.5
395.187	483.25
393.114	523
391.041	481
388.968	479.75
386.895	517.75
384.82	518.5
382.745	485.25
380.67	494.5
378.594	500.25
376.517	518.75
374.44	545.25
372.363	502.5
370.286	514
368.207	534.25
366.128	524.25
364.049	502.25
361.969	558.5
359.888	495
357.807	547.25
355.725	520
353.643	550.75
351.561	516.75
349.477	539.5
347.394	549.25
345.31	514
343.226	571.25
341.141	540.5
339.055	568
336.968	557.5
334.882	566.75
332.795	574.75
330.707	605.25
328.618	591.75
326.53	584
324.44	617
322.351	631
320.26	642.75
318.17	663.75
316.078	670.75
313.987	681.5
311.895	715
309.802	717.25
307.708	785.25
305.614	789
303.52	770.5
301.425	784.25
299.329	761.75
297.233	749.25
295.137	757.25
293.039	715.25
290.942	772.75
288.844	710.75
286.745	732
284.647	691
282.546	711.25
280.446	732.5
278.346	743.25
276.245	740.75
274.143	745
272.041	747.5
269.939	760
267.835	784.25
265.731	754
263.627	786.75
261.522	760.5
259.417	781.25
257.311	794
255.204	809.5
253.098	827.25
250.99	826
248.882	812
246.774	854.5
244.664	868.5
242.555	894.25
240.445	844.25
238.334	888.5
236.223	892.25
234.112	892
232	907.5
229.888	912
227.775	910.5
225.661	927
223.546	953
221.431	908.5
219.316	944.25
217.201	973.75
215.084	988.25
212.967	940.75
210.85	991.5
208.732	963.75
206.614	981.5
204.495	974
202.375	991.5
200.256	979.5
198.135	956.5
196.014	997.75
193.893	951
191.771	973
189.648	967.75
187.525	1002
185.401	999
183.277	961
181.152	990.5
179.027	1008.5
176.901	1009
174.775	1007.25
172.648	1006.75
170.521	1019
168.393	1031.75
166.265	1066.5
164.136	1064.75
162.007	1071.25
159.876	1096.75
157.746	1139
155.615	1122
153.483	1193
151.351	1225.75
149.219	1208.25
147.086	1230.75
144.952	1262.75
142.818	1290
140.684	1326.5
138.548	1398
136.413	1453.5
134.276	1446.25
132.139	1490
130.002	1527
127.864	1598.75
125.725	1692.5
123.587	1695.25
121.447	1793
119.307	1825.25
117.166	1903
115.026	1938
112.885	2027.25
110.743	2078.75
108.6	2148.75
106.456	2129.25
104.313	2130.75
102.169	2125
100.023	2047.25
97.8789	1895.5
95.7328	1721.5
93.5869	1503
91.4392	1277.75
89.2919	1075.25
87.1447	831.25
84.9959	638.25
