3528.51	87
3527.23	96
3525.95	99.5
3524.67	100
3523.39	102
3522.1	101
3520.82	117.5
3519.54	111
3518.26	117.5
3516.97	119
3515.69	112
3514.4	112.5
3513.12	116.5
3511.84	112
3510.55	105
3509.26	118
3507.98	119.5
3506.69	115
3505.41	118
3504.12	125
3502.83	121
3501.54	123.5
3500.26	132
3498.97	119.5
3497.68	120
3496.39	127
3495.1	130.5
3493.81	136
3492.52	129.5
3491.23	136
3489.94	143
3488.65	145
3487.36	147.5
3486.07	140
3484.78	153
3483.49	148.5
3482.19	150.5
3480.9	150.5
3479.61	150
3478.31	153
3477.02	158
3475.73	161.5
3474.43	162
3473.14	159
3471.84	173.5
3470.54	171.5
3469.25	168
3467.95	162
3466.66	163
3465.36	154
3464.06	159.5
3462.76	160.5
3461.46	165.5
3460.17	176.5
3458.87	168
3457.57	174
3456.27	180.5
3454.97	176
3453.67	192.5
3452.37	174.5
3451.07	176
3449.77	180
3448.47	180
3447.16	187.5
3445.86	187.5
3444.56	198
3443.26	197.5
3441.95	211
3440.65	209
3439.35	205
3438.04	216.5
3436.74	204.5
3435.43	211
3434.13	219
3432.82	218
3431.52	230.5
3430.21	229
3428.9	230
3427.6	246
3426.29	250
3424.98	252
3423.67	246.5
3422.36	245
3421.06	247
3419.75	243.5
3418.44	267.5
3417.13	264.5
3415.82	258.5
3414.51	273
3413.2	266.5
3411.88	272.5
3410.57	283
3409.26	282
3407.95	269
3406.64	275
3405.32	280
3404.01	282
3402.7	289.5
3401.38	286
3400.07	292
3398.75	291
3397.44	304
3396.12	295.5
3394.81	319
3393.49	309.5
3392.18	314
3390.86	312.5
3389.54	302
3388.23	312.5
3386.91	324
3385.59	319.5
3384.27	320.5
3382.95	329
3381.63	320
3380.31	343
3378.99	338
3377.67	331
3376.35	327
3375.03	338
3373.71	343.5
3372.39	341.5
3371.07	344
3369.75	352
3368.42	354.5
3367.1	370
3365.78	367.5
3364.45	364
3363.13	371.5
3361.81	358
3360.48	366.5
3359.16	373
3357.83	369.5
3356.51	369
3355.18	377
3353.85	386
3352.53	391.5
3351.2	390.5
3349.87	394.5
3348.54	382
3347.22	398
3345.89	398.5
3344.56	393
3343.23	371.5
3341.9	382.5
3340.57	381
3339.24	391
3337.91	401
3336.58	398
3335.25	411
3333.92	401.5
3332.58	410.5
3331.25	416
3329.92	406.5
3328.59	409.5
3327.25	415.5
3325.92	428.5
3324.58	418.5
3323.25	421
3321.92	426
3320.58	429
3319.25	429.5
3317.91	426.5
3316.57	437
3315.24	434
3313.9	442
3312.56	437
3311.23	443
3309.89	436.5
3308.55	450.5
3307.21	450.5
3305.87	448.5
3304.53	452
3303.19	458
3301.85	465
3300.51	462.5
3299.17	447
3297.83	452
3296.49	457.5
3295.15	463
3293.81	454.5
3292.46	459
3291.12	457.5
3289.78	480
3288.43	473
3287.09	480
3285.75	491
3284.4	479.5
3283.06	472.5
3281.71	477
3280.37	484
3279.02	502.5
3277.67	484.5
3276.33	500
3274.98	496.5
3273.63	514
3272.28	520.5
3270.94	504
3269.59	512
3268.24	522.5
3266.89	519
3265.54	524.5
3264.19	541.5
3262.84	554.5
3261.49	574
3260.14	592.5
3258.79	581.5
3257.44	596.5
3256.08	611
3254.73	617
3253.38	627
3252.03	644.5
3250.67	638.5
3249.32	668.5
3247.96	679
3246.61	706.5
3245.26	735.5
3243.9	743.5
3242.54	767
3241.19	779
3239.83	792.5
3238.48	815
3237.12	833.5
3235.76	857
3234.41	860.5
3233.05	893.5
3231.69	905
3230.33	950
3228.97	932
3227.61	993
3226.25	993.5
3224.89	996
3223.53	1006.5
3222.17	1010
3220.81	1022
3219.45	1051
3218.09	1051
3216.72	1061
3215.36	1081.5
3214	1071
3212.63	1097
3211.27	1093
3209.91	1096
3208.54	1116
3207.18	1107
3205.81	1121
3204.45	1113
3203.08	1140.5
3201.71	1149
3200.35	1135
3198.98	1156.5
3197.61	1166
3196.25	1170.5
3194.88	1196
3193.51	1196
3192.14	1168
3190.77	1186.5
3189.4	1174.5
3188.03	1192.5
3186.66	1196.5
3185.29	1210
3183.92	1220.5
3182.55	1214.5
3181.18	1244.5
3179.81	1255
3178.44	1267.5
3177.06	1262.5
3175.69	1266.5
3174.32	1285
3172.94	1284
3171.57	1296
3170.2	1322.5
3168.82	1314
3167.45	1317
3166.07	1317.5
3164.69	1351.5
3163.32	1363
3161.94	1363
3160.56	1385
3159.19	1383
3157.81	1376.5
3156.43	1390.5
3155.05	1408
3153.67	1443.5
3152.3	1449
3150.92	1438
3149.54	1456
3148.16	1450
3146.78	1491
3145.4	1490.5
3144.01	1488
3142.63	1499.5
3141.25	1491
3139.87	1529.5
3138.49	1542.5
3137.1	1543.5
3135.72	1555.5
3134.34	1560.5
3132.95	1590
3131.57	1570.5
3130.18	1565
3128.8	1594.5
3127.41	1602
3126.03	1634.5
3124.64	1626
3123.25	1652
3121.87	1653.5
3120.48	1677
3119.09	1677.5
3117.7	1690
3116.32	1696.5
3114.93	1684.5
3113.54	1683.5
3112.15	1703
3110.76	1709.5
3109.37	1708.5
3107.98	1717
3106.59	1720
3105.2	1745
3103.8	1729
3102.41	1761.5
3101.02	1760.5
3099.63	1759.5
3098.23	1750
3096.84	1759
3095.45	1761.5
3094.05	1765
3092.66	1783.5
3091.26	1810
3089.87	1809.5
3088.47	1806.5
3087.08	1832
3085.68	1818.5
3084.28	1824
3082.89	1811.5
3081.49	1830.5
3080.09	1830
3078.69	1841.5
3077.3	1845.5
3075.9	1855.5
3074.5	1852
3073.1	1867.5
3071.7	1878
3070.3	1867
3068.9	1880.5
3067.5	1873.5
3066.09	1877
3064.69	1891.5
3063.29	1886.5
3061.89	1892
3060.48	1908
3059.08	1910.5
3057.68	1915.5
3056.27	1915
3054.87	1945
3053.46	1943
3052.06	1961
3050.65	1943.5
3049.25	1970
3047.84	1938
3046.44	1984
3045.03	1979.5
3043.62	1976
3042.21	1980.5
3040.81	1989.5
3039.4	2016
3037.99	2015
3036.58	2004
3035.17	2005.5
3033.76	2041.5
3032.35	2015
3030.94	2027.5
3029.53	2036
3028.12	2038
3026.71	2027
3025.29	2055.5
3023.88	2047
3022.47	2052
3021.06	2064.5
3019.64	2076
3018.23	2051
3016.82	2047
3015.4	2076.5
3013.99	2071.5
3012.57	2070.5
3011.15	2063
3009.74	2086.5
3008.32	2092.5
3006.91	2106.5
3005.49	2108.5
3004.07	2109.5
3002.65	2128.5
3001.24	2102
2999.82	2142.5
2998.4	2126
2996.98	2158.5
2995.56	2165.5
2994.14	2176
2992.72	2189.5
2991.3	2191
2989.88	2222.5
2988.46	2226.5
2987.03	2234.5
2985.61	2226
2984.19	2269
2982.77	2274
2981.34	2278
2979.92	2274.5
2978.49	2277
2977.07	2337
2975.65	2300
2974.22	2333
2972.79	2332
2971.37	2358
2969.94	2356
2968.52	2370.5
2967.09	2350
2965.66	2368.5
2964.23	2376
2962.81	2401.5
2961.38	2392
2959.95	2434.5
2958.52	2410
2957.09	2428.5
2955.66	2426
2954.23	2406
2952.8	2446
2951.37	2407
2949.94	2431
2948.5	2421
2947.07	2423.5
2945.64	2472
2944.21	2439.5
2942.77	2438.5
2941.34	2447
2939.91	2479.5
2938.47	2470
2937.04	2495
2935.6	2500
2934.17	2507.5
2932.73	2498
2931.29	2507
2929.86	2507
2928.42	2524.5
2926.98	2540
2925.55	2550
2924.11	2542
2922.67	2543.5
2921.23	2567.5
2919.79	2549.5
2918.35	2574
2916.91	2596.5
2915.47	2534
2914.03	2570
2912.59	2550.5
2911.15	2597
2909.71	2596
2908.26	2593.5
2906.82	2610.5
2905.38	2595
2903.94	2632.5
2902.49	2610.5
2901.05	2652
2899.6	2623.5
2898.16	2637.5
2896.71	2603
2895.27	2645
2893.82	2642
2892.38	2661.5
2890.93	2647
2889.48	2596.5
2888.03	2629
2886.59	2674.5
2885.14	2649
2883.69	2674
2882.24	2660.5
2880.79	2656.5
2879.34	2675
2877.89	2653
2876.44	2676.5
2874.99	2697
2873.54	2715.5
2872.09	2683.5
2870.64	2680.5
2869.18	2674.5
2867.73	2693.5
2866.28	2710
2864.83	2687.5
2863.37	2683
2861.92	2685
2860.46	2690.5
2859.01	2681.5
2857.55	2706.5
2856.1	2700.5
2854.64	2683
2853.19	2692
2851.73	2702.5
2850.27	2708.5
2848.81	2727
2847.36	2675.5
2845.9	2703
2844.44	2697.5
2842.98	2692
2841.52	2691.5
2840.06	2672
2838.6	2679
2837.14	2658
2835.68	2675.5
2834.22	2632
2832.76	2653
2831.3	2637
2829.83	2643
2828.37	2649
2826.91	2646
2825.44	2618.5
2823.98	2643
2822.52	2657.5
2821.05	2620.5
2819.59	2609.5
2818.12	2621.5
2816.66	2607.5
2815.19	2612.5
2813.72	2623.5
2812.26	2603
2810.79	2627
2809.32	2587.5
2807.85	2604
2806.38	2595
2804.92	2586
2803.45	2605
2801.98	2586.5
2800.51	2578
2799.04	2594
2797.57	2609
2796.1	2608
2794.62	2588.5
2793.15	2577.5
2791.68	2605
2790.21	2565.5
2788.73	2557.5
2787.26	2588
2785.79	2585.5
2784.31	2569
2782.84	2561
2781.36	2584
2779.89	2568
2778.41	2579.5
2776.94	2568
2775.46	2595
2773.99	2617
2772.51	2596
2771.03	2624
2769.55	2583
2768.07	2603.5
2766.6	2603
2765.12	2595
2763.64	2616
2762.16	2593
2760.68	2602
2759.2	2605.5
2757.72	2597
2756.24	2561
2754.75	2554.5
2753.27	2577
2751.79	2608
2750.31	2596
2748.82	2595
2747.34	2567
2745.86	2536
2744.37	2584
2742.89	2579.5
2741.4	2587
2739.92	2570
2738.43	2568
2736.94	2559.5
2735.46	2581.5
2733.97	2592.5
2732.48	2566.5
2731	2531.5
2729.51	2554
2728.02	2551.5
2726.53	2564
2725.04	2549.5
2723.55	2541.5
2722.06	2580.5
2720.57	2555
2719.08	2551.5
2717.59	2566
2716.1	2548.5
2714.61	2551
2713.11	2553.5
2711.62	2543
2710.13	2552.5
2708.64	2549
2707.14	2515
2705.65	2538
2704.15	2525.5
2702.66	2549
2701.16	2544.5
2699.67	2530
2698.17	2535.5
2696.67	2499
2695.18	2522.5
2693.68	2503
2692.18	2539
2690.69	2521.5
2689.19	2511
2687.69	2511.5
2686.19	2491.5
2684.69	2489.5
2683.19	2487
2681.69	2481.5
2680.19	2470.5
2678.69	2483
2677.19	2448.5
2675.68	2446.5
2674.18	2482.5
2672.68	2461.5
2671.18	2468.5
2669.67	2440
2668.17	2445.5
2666.66	2448.5
2665.16	2444
2663.66	2429.5
2662.15	2440
2660.64	2427
2659.14	2424.5
2657.63	2435.5
2656.13	2435
2654.62	2428
2653.11	2446.5
2651.6	2395
2650.09	2428.5
2648.58	2401.5
2647.08	2415
2645.57	2406
2644.06	2360
2642.55	2381
2641.04	2376.5
2639.52	2379.5
2638.01	2372
2636.5	2369
2634.99	2354.5
2633.48	2344
2631.96	2323
2630.45	2327.5
2628.94	2334
2627.42	2333.5
2625.91	2325.5
2624.39	2344
2622.88	2350
2621.36	2350.5
2619.85	2335.5
2618.33	2330
2616.81	2358.5
2615.3	2306
2613.78	2309
2612.26	2320
2610.74	2314
2609.22	2304
2607.7	2324.5
2606.18	2274
2604.66	2275.5
2603.14	2273.5
2601.62	2231
2600.1	2248
2598.58	2219
2597.06	2242.5
2595.54	2208.5
2594.01	2240.5
2592.49	2210.5
2590.97	2208
2589.44	2233.5
2587.92	2236
2586.39	2236
2584.87	2233.5
2583.34	2234
2581.82	2217.5
2580.29	2224
2578.76	2220
2577.24	2205
2575.71	2213
2574.18	2175.5
2572.65	2213.5
2571.13	2199
2569.6	2210
2568.07	2166.5
2566.54	2188.5
2565.01	2213.5
2563.48	2197
2561.95	2189.5
2560.42	2182.5
2558.88	2160
2557.35	2153.5
2555.82	2148
2554.29	2133.5
2552.75	2131.5
2551.22	2146
2549.69	2123
2548.15	2135.5
2546.62	2119
2545.08	2125
2543.55	2125
2542.01	2109.5
2540.47	2106
2538.94	2103
2537.4	2092.5
2535.86	2103
2534.33	2092
2532.79	2093.5
2531.25	2070
2529.71	2079
2528.17	2080
2526.63	2055
2525.09	2045
2523.55	2044.5
2522.01	2040
2520.47	2021.5
2518.92	2028
2517.38	2031
2515.84	2014.5
2514.3	1988.5
2512.75	1989
2511.21	1995
2509.67	1996
2508.12	1972.5
2506.58	1970
2505.03	1946
2503.49	1964.5
2501.94	1947.5
2500.39	1912
2498.85	1911.5
2497.3	1953.5
2495.75	1931.5
2494.2	1911
2492.65	1927
2491.11	1930.5
2489.56	1905.5
2488.01	1895
2486.46	1894.5
2484.91	1899.5
2483.36	1870
2481.8	1880
2480.25	1884
2478.7	1898.5
2477.15	1871
2475.6	1854.5
2474.04	1837.5
2472.49	1829
2470.93	1821.5
2469.38	1808
2467.83	1811
2466.27	1806.5
2464.71	1814.5
2463.16	1779.5
2461.6	1771
2460.05	1799
2458.49	1777.5
2456.93	1751
2455.37	1739
2453.81	1746.5
2452.26	1767
2450.7	1756
2449.14	1708.5
2447.58	1736.5
2446.02	1710.5
2444.46	1698.5
2442.9	1714
2441.33	1701
2439.77	1705.5
2438.21	1691
2436.65	1705
2435.08	1693
2433.52	1676.5
2431.96	1700
2430.39	1680
2428.83	1681
2427.26	1676.5
2425.7	1661
2424.13	1665
2422.56	1677
2421	1659.5
2419.43	1641
2417.86	1612
2416.3	1644.5
2414.73	1648.5
2413.16	1647
2411.59	1642.5
2410.02	1623
2408.45	1623.5
2406.88	1659.5
2405.31	1620
2403.74	1632
2402.17	1618.5
2400.6	1634
2399.02	1603
2397.45	1592.5
2395.88	1596
2394.3	1594
2392.73	1600.5
2391.16	1581.5
2389.58	1584
2388.01	1613
2386.43	1606
2384.86	1611
2383.28	1607
2381.7	1587.5
2380.13	1596
2378.55	1582.5
2376.97	1578
2375.39	1563.5
2373.81	1577.5
2372.23	1541.5
2370.65	1546.5
2369.07	1555.5
2367.49	1541
2365.91	1538.5
2364.33	1524.5
2362.75	1528
2361.17	1526.5
2359.59	1518.5
2358.01	1527.5
2356.42	1533.5
2354.84	1518
2353.25	1528.5
2351.67	1523
2350.09	1512.5
2348.5	1510
2346.92	1519
2345.33	1513.5
2343.74	1501.5
2342.16	1515
2340.57	1512
2338.98	1512
2337.39	1473
2335.81	1491.5
2334.22	1482
2332.63	1477
2331.04	1494
2329.45	1481.5
2327.86	1479
2326.27	1458
2324.68	1460
2323.09	1444.5
2321.49	1462.5
2319.9	1437.5
2318.31	1432.5
2316.72	1432
2315.12	1429
2313.53	1434
2311.93	1401.5
2310.34	1434
2308.74	1409
2307.15	1409
2305.55	1380
2303.96	1384
2302.36	1363
2300.76	1359.5
2299.17	1385.5
2297.57	1381
2295.97	1380.5
2294.37	1350.5
2292.77	1357
2291.17	1359
2289.57	1347.5
2287.97	1359
2286.37	1331.5
2284.77	1336
2283.17	1356.5
2281.57	1335.5
2279.96	1339.5
2278.36	1330
2276.76	1317.5
2275.15	1344.5
2273.55	1338.5
2271.95	1316.5
2270.34	1306.5
2268.74	1302
2267.13	1276.5
2265.52	1277.5
2263.92	1262
2262.31	1292
2260.7	1290.5
2259.1	1293
2257.49	1268
2255.88	1277
2254.27	1265.5
2252.66	1274
2251.05	1255
2249.44	1257.5
2247.83	1252
2246.22	1269
2244.61	1267
2243	1256.5
2241.39	1252
2239.77	1241
2238.16	1247
2236.55	1244
2234.93	1235.5
2233.32	1218.5
2231.7	1228.5
2230.09	1209
2228.47	1210
2226.86	1202
2225.24	1221
2223.63	1215
2222.01	1184
2220.39	1199
2218.77	1184.5
2217.16	1181
2215.54	1179.5
2213.92	1159.5
2212.3	1153
2210.68	1171.5
2209.06	1188
2207.44	1166.5
2205.82	1164.5
2204.19	1155
2202.57	1148.5
2200.95	1137.5
2199.33	1133.5
2197.7	1147.5
2196.08	1127
2194.46	1144
2192.83	1124
2191.21	1146
2189.58	1130
2187.96	1112.5
2186.33	1115
2184.7	1115
2183.08	1110.5
2181.45	1104
2179.82	1100
2178.19	1084.5
2176.57	1084.5
2174.94	1086
2173.31	1082
2171.68	1087.5
2170.05	1083.5
2168.42	1068.5
2166.79	1061
2165.16	1056.5
2163.52	1056
2161.89	1058.5
2160.26	1058
2158.63	1040
2156.99	1036
2155.36	1036.5
2153.73	1036.5
2152.09	1035
2150.46	1047
2148.82	1025.5
2147.18	1025
2145.55	1009.5
2143.91	1006.5
2142.27	1010
2140.64	1005
2139	984.5
2137.36	1004.5
2135.72	994
2134.08	992
2132.44	983
2130.8	979.5
2129.16	991
2127.52	972
2125.88	974.5
2124.24	944.5
2122.6	930.5
2120.95	943
2119.31	929
2117.67	912.5
2116.02	926.5
2114.38	939
2112.74	930.5
2111.09	915
2109.45	912.5
2107.8	901.5
2106.15	896
2104.51	908.5
2102.86	893
2101.21	904.5
2099.56	888
2097.92	887
2096.27	917
2094.62	907
2092.97	888.5
2091.32	913
2089.67	903.5
2088.02	880
2086.37	888
2084.72	865.5
2083.06	871
2081.41	854.5
2079.76	863.5
2078.1	853.5
2076.45	876
2074.8	852.5
2073.14	867
2071.49	876
2069.83	863
2068.18	864
2066.52	850
2064.86	843.5
2063.21	856.5
2061.55	852
2059.89	835
2058.23	836.5
2056.57	849.5
2054.92	839.5
2053.26	835.5
2051.6	832.5
2049.94	820
2048.27	831.5
2046.61	811.5
2044.95	808
2043.29	812.5
2041.63	800.5
2039.97	785.5
2038.3	785.5
2036.64	810
2034.97	798.5
2033.31	802
2031.64	806
2029.98	783
2028.31	779.5
2026.65	757.5
2024.98	754.5
2023.31	782
2021.65	769.5
2019.98	745
2018.31	770
2016.64	771
2014.97	768
2013.3	764.5
2011.63	749
2009.96	739
2008.29	736
2006.62	734.5
2004.95	724
2003.28	727.5
2001.6	728
1999.93	739.5
1998.26	744
1996.58	728.5
1994.91	734
1993.24	719.5
1991.56	730.5
1989.89	729.5
1988.21	694
1986.53	714
1984.86	714
1983.18	699
1981.5	711.5
1979.82	700.5
1978.15	699.5
1976.47	718.5
1974.79	696.5
1973.11	692
1971.43	683.5
1969.75	680
1968.07	686.5
1966.38	673.5
1964.7	667.5
1963.02	664.5
1961.34	672.5
1959.66	654.5
1957.97	656.5
1956.29	668
1954.6	659.5
1952.92	660.5
1951.23	635.5
1949.55	634.5
1947.86	638
1946.18	629
1944.49	630.5
1942.8	633.5
1941.11	623.5
1939.43	637
1937.74	636
1936.05	637
1934.36	638
1932.67	629.5
1930.98	607.5
1929.29	623
1927.6	615
1925.91	609
1924.21	602
1922.52	585.5
1920.83	600.5
1919.14	608.5
1917.44	598.5
1915.75	609.5
1914.05	611.5
1912.36	596
1910.66	590.5
1908.97	591.5
1907.27	574.5
1905.58	577.5
1903.88	573
1902.18	572
1900.48	564.5
1898.79	573.5
1897.09	561
1895.39	564.5
1893.69	565.5
1891.99	567
1890.29	565
1888.59	543
1886.89	546
1885.18	547
1883.48	546.5
1881.78	549.5
1880.08	541
1878.37	539.5
1876.67	539
1874.96	542
1873.26	542.5
1871.55	509
1869.85	511
1868.14	522.5
1866.44	509.5
1864.73	516.5
1863.02	510.5
1861.32	509
1859.61	509.5
1857.9	502
1856.19	500
1854.48	510
1852.77	499
1851.06	503.5
1849.35	491.5
1847.64	497.5
1845.93	495.5
1844.21	500
1842.5	499.5
1840.79	491
1839.08	494.5
1837.36	470.5
1835.65	464.5
1833.93	492
1832.22	456.5
1830.5	465.5
1828.79	458.5
1827.07	461
1825.36	464.5
1823.64	469.5
1821.92	466
1820.2	466
1818.48	462
1816.77	456.5
1815.05	458
1813.33	451
1811.61	455.5
1809.89	459
1808.16	446
1806.44	442
1804.72	446.5
1803	440.5
1801.28	451.5
1799.55	422
1797.83	442
1796.11	417
1794.38	424.5
1792.66	421.5
1790.93	416
1789.21	420
1787.48	418.5
1785.75	416.5
1784.03	407.5
1782.3	423
1780.57	424
1778.84	408.5
1777.11	411
1775.38	413.5
1773.66	407.5
1771.93	415
1770.19	397.5
1768.46	407
1766.73	408
1765	409
1763.27	402.5
1761.54	428.5
1759.8	420.5
1758.07	428
1756.34	411
1754.6	422
1752.87	421.5
1751.13	435
1749.4	427.5
1747.66	432.5
1745.92	422
1744.19	416
1742.45	423.5
1740.71	423.5
1738.97	416
1737.23	417
1735.49	400
1733.75	406.5
1732.01	393.5
1730.27	395
1728.53	389
1726.79	387
1725.05	384
1723.31	387
1721.57	393.5
1719.82	381
1718.08	379
1716.34	358.5
1714.59	369
1712.85	350
1711.1	351
1709.36	358
1707.61	358.5
1705.86	361.5
1704.12	358
1702.37	359
1700.62	354
1698.87	360
1697.12	364
1695.37	343
1693.62	350
1691.87	328.5
1690.12	344
1688.37	343
1686.62	348.5
1684.87	338.5
1683.12	352.5
1681.36	329.5
1679.61	350.5
1677.86	341.5
1676.1	339
1674.35	345
1672.59	346
1670.84	352
1669.08	345
1667.33	375
1665.57	388
1663.81	407
1662.06	418
1660.3	429.5
1658.54	441.5
1656.78	429
1655.02	423
1653.26	394
1651.5	396
1649.74	374
1647.98	365.5
1646.22	353
1644.46	339.5
1642.7	340
1640.93	340
1639.17	318
1637.41	322.5
1635.64	323.5
1633.88	305
1632.11	295
1630.35	300.5
1628.58	301
1626.81	302
1625.05	308.5
1623.28	304.5
1621.51	297.5
1619.75	295
1617.98	292.5
1616.21	288
1614.44	292.5
1612.67	280
1610.9	285.5
1609.13	284.5
1607.36	290.5
1605.58	289
1603.81	290
1602.04	279
1600.27	295
1598.49	279.5
1596.72	297.5
1594.95	278
1593.17	275
1591.4	266
1589.62	270.5
1587.84	280
1586.07	279.5
1584.29	272.5
1582.51	282
1580.74	280.5
1578.96	274.5
1577.18	271
1575.4	272
1573.62	261
1571.84	259.5
1570.06	262.5
1568.28	252
1566.5	264.5
1564.72	261
1562.93	274
1561.15	261.5
1559.37	266.5
1557.58	272.5
1555.8	268.5
1554.02	253
1552.23	259
1550.45	238.5
1548.66	245.5
1546.87	258.5
1545.09	240
1543.3	254
1541.51	248.5
1539.72	253.5
1537.94	248.5
1536.15	261
1534.36	252.5
1532.57	236.5
1530.78	238
1528.99	240.5
1527.2	231
1525.4	238.5
1523.61	233.5
1521.82	251
1520.03	241.5
1518.23	241.5
1516.44	243
1514.65	249
1512.85	235
1511.06	232.5
1509.26	244
1507.46	240.5
1505.67	242
1503.87	252
1502.07	250
1500.28	240.5
1498.48	253.5
1496.68	253.5
1494.88	239
1493.08	247.5
1491.28	249.5
1489.48	249
1487.68	250
1485.88	245
1484.08	251.5
1482.27	254.5
1480.47	271
1478.67	275
1476.86	283
1475.06	292.5
1473.25	301
1471.45	320
1469.64	327
1467.84	337
1466.03	348
1464.23	376.5
1462.42	384
1460.61	398
1458.8	405
1456.99	415
1455.18	420.5
1453.37	445.5
1451.56	438
1449.75	446
1447.94	450
1446.13	474
1444.32	473
1442.51	491.5
1440.7	485
1438.88	469.5
1437.07	444.5
1435.26	423.5
1433.44	387
1431.63	356
1429.81	317
1427.99	303
1426.18	281.5
1424.36	269
1422.54	260
1420.73	249
1418.91	253
1417.09	264
1415.27	246
1413.45	241.5
1411.63	233
1409.81	238
1407.99	221.5
1406.17	217
1404.35	220.5
1402.53	222
1400.7	205
1398.88	212
1397.06	215.5
1395.23	211.5
1393.41	213
1391.58	211
1389.76	198
1387.93	194
1386.11	204.5
1384.28	185.5
1382.45	199
1380.62	201
1378.8	203.5
1376.97	207
1375.14	211
1373.31	203.5
1371.48	211
1369.65	213
1367.82	219.5
1365.99	203
1364.16	205.5
1362.32	204
1360.49	205.5
1358.66	195
1356.82	202.5
1354.99	206
1353.16	204
1351.32	211.5
1349.48	201.5
1347.65	207.5
1345.81	201.5
1343.98	198.5
1342.14	193.5
1340.3	196
1338.46	204.5
1336.62	200.5
1334.79	208.5
1332.95	204.5
1331.11	228
1329.27	221
1327.42	229
1325.58	224.5
1323.74	236
1321.9	254
1320.06	251
1318.21	262.5
1316.37	278.5
1314.53	292
1312.68	301.5
1310.84	321
1308.99	339.5
1307.15	352
1305.3	351
1303.45	360
1301.61	364.5
1299.76	365.5
1297.91	348
1296.06	331.5
1294.21	306
1292.36	286
1290.51	285.5
1288.66	277.5
1286.81	261
1284.96	267.5
1283.11	258
1281.26	261.5
1279.4	258.5
1277.55	247
1275.7	259.5
1273.84	256
1271.99	277.5
1270.13	271.5
1268.28	260.5
1266.42	268.5
1264.56	261
1262.71	253.5
1260.85	241
1258.99	249
1257.13	224
1255.27	223
1253.41	222.5
1251.56	221
1249.7	208.5
1247.83	210.5
1245.97	201.5
1244.11	200.5
1242.25	201
1240.39	197.5
1238.52	186.5
1236.66	180
1234.8	186
1232.93	172
1231.07	170.5
1229.2	168.5
1227.34	172
1225.47	178.5
1223.6	170.5
1221.74	166
1219.87	171
1218	158
1216.13	169.5
1214.26	156
1212.39	156
1210.53	162.5
1208.65	159.5
1206.78	162.5
1204.91	161
1203.04	163.5
1201.17	159
1199.3	159.5
1197.42	156
1195.55	155
1193.68	150
1191.8	152
1189.93	149
1188.05	144
1186.17	162
1184.3	151.5
1182.42	154
1180.54	163.5
1178.67	151
1176.79	147
1174.91	150
1173.03	142.5
1171.15	146
1169.27	145
1167.39	150.5
1165.51	150
1163.63	156
1161.75	153
1159.86	148
1157.98	154
1156.1	154.5
1154.21	151
1152.33	156.5
1150.44	147
1148.56	144.5
1146.67	157
1144.79	155
1142.9	162
1141.01	154
1139.12	167.5
1137.24	170
1135.35	177
1133.46	188
1131.57	199.5
1129.68	195
1127.79	205
1125.9	198
1124.01	193.5
1122.12	191
1120.22	190.5
1118.33	192
1116.44	198.5
1114.54	191
1112.65	191.5
1110.75	177
1108.86	182
1106.96	198
1105.07	187.5
1103.17	199.5
1101.27	208
1099.38	208.5
1097.48	222
1095.58	242.5
1093.68	236
1091.78	247
1089.88	255
1087.98	254
1086.08	260
1084.18	254.5
1082.28	265.5
1080.38	253.5
1078.47	255.5
1076.57	249
1074.67	257.5
1072.76	248
1070.86	248.5
1068.95	246.5
1067.05	247.5
1065.14	255
1063.24	263
1061.33	245
1059.42	239
1057.51	218.5
1055.6	208
1053.7	202.5
1051.79	196.5
1049.88	194.5
1047.97	187.5
1046.06	192.5
1044.14	184
1042.23	178
1040.32	178.5
1038.41	176.5
1036.5	190.5
1034.58	193
1032.67	199.5
1030.75	184.5
1028.84	182
1026.92	190
1025.01	181
1023.09	178
1021.17	177
1019.26	180
1017.34	177
1015.42	180.5
1013.5	181
1011.58	185
1009.66	179.5
1007.74	179.5
1005.82	176
1003.9	178.5
1001.98	185
1000.06	177
998.134	173.5
996.212	175
994.288	181
992.364	190
990.44	186
988.515	199
986.589	200
984.663	212
982.737	219
980.81	233.5
978.883	233.5
976.955	241
975.027	228
973.098	234
971.169	240.5
969.239	232.5
967.308	245
965.378	246.5
963.447	254.5
961.516	249.5
959.583	254
957.65	245
955.718	235
953.784	252
951.85	255
949.916	242
947.981	261.5
946.045	267
944.109	267.5
942.173	276.5
940.236	260
938.298	264.5
936.36	259
934.422	247
932.484	239
930.544	222
928.604	207
926.664	200.5
924.724	207
922.782	212
920.84	208
918.898	209
916.955	214.5
915.012	212
913.068	207.5
911.124	212.5
909.18	208
907.235	197
905.289	206
903.343	211.5
901.397	213.5
899.45	221
897.502	227
895.554	221
893.605	234
891.657	237.5
889.707	226
887.758	223
885.807	213.5
883.856	230
881.905	220
879.953	227.5
878.001	233
876.048	232.5
874.094	242.5
872.14	234
870.186	232
868.232	232
866.276	223
864.321	229
862.365	219.5
860.408	217
858.451	212.5
856.493	227
854.535	226
852.576	227.5
850.617	231.5
848.658	231.5
846.698	228
844.737	227.5
842.776	211.5
840.814	203
838.852	203.5
836.89	196
834.927	199.5
832.963	202
830.999	195
829.035	182.5
827.07	185.5
825.105	182
823.139	168
821.172	168
819.206	159.5
817.238	162.5
815.27	159.5
813.301	156.5
811.333	170
809.363	161
807.394	154
805.424	154
803.453	133
801.482	143
799.509	136
797.538	133.5
795.565	130
793.592	123
791.618	131
789.643	133.5
787.669	127
785.693	127.5
783.718	131
781.742	126.5
779.765	131
777.788	120
775.811	126.5
773.832	126
771.853	125
769.875	117.5
767.895	127.5
765.915	130
763.934	121
761.953	135.5
759.972	132.5
757.99	126.5
756.007	114.5
754.024	129
752.041	125.5
750.056	117
748.072	117.5
746.087	117.5
744.102	119.5
742.116	119
740.13	134.5
738.143	132
736.155	129.5
734.167	137.5
732.179	127
730.19	129.5
728.2	127.5
726.21	132.5
724.22	123
722.229	129
720.237	129
718.246	127.5
716.253	128
714.26	140.5
712.267	126
710.273	128
708.279	133
706.284	110.5
704.289	119.5
702.293	120
700.296	115.5
698.3	108.5
696.303	117
694.305	118
692.307	124
690.307	125
688.308	123.5
686.309	123
684.308	125
682.308	111
680.306	114.5
678.304	114
676.302	114
674.3	124
672.296	126.5
670.293	124
668.289	129
666.284	126
664.278	123
662.273	122.5
660.266	119
658.26	125
656.252	116
654.244	112
652.237	127
650.227	136.5
648.218	133.5
646.209	128
644.198	124
642.188	130.5
640.177	124.5
638.165	125
636.153	130.5
634.14	131
632.128	131
630.113	125
628.099	132
626.085	139.5
624.07	145.5
622.054	148.5
620.038	135
618.021	150
616.004	131.5
613.986	143
611.968	138
609.949	141.5
607.93	140
605.911	144.5
603.891	144.5
601.87	144
599.848	141
597.827	142
595.805	144.5
593.782	134
591.759	128
589.735	137
587.711	140.5
585.687	131
583.661	131.5
581.636	138
579.609	130.5
577.583	139
575.555	137
573.527	141
571.5	120
569.471	139.5
567.441	129
565.412	132.5
563.382	138.5
561.351	134
559.32	145
557.289	149.5
555.257	152.5
553.223	156
551.19	162
549.157	171
547.122	182
545.088	171
543.053	185
541.017	194
538.981	231.5
536.943	267.5
534.907	332
532.869	440
530.831	642
528.792	939
526.752	1470.5
524.713	2094
522.673	2500.5
520.632	2400
518.591	1935
516.549	1370.5
514.507	949
512.464	618.5
510.42	442.5
508.377	340
506.332	268.5
504.288	233
502.242	223.5
500.196	201.5
498.15	183.5
496.104	190
494.056	188.5
492.008	181.5
489.96	179
487.911	180.5
485.862	175
483.812	174
481.761	168
479.71	174
477.659	161
475.607	166.5
473.555	162.5
471.502	164
469.448	167
467.395	166
465.34	168.5
463.285	162
461.23	160.5
459.174	170.5
457.118	174
455.061	165
453.003	157
450.945	174
448.887	170
446.828	175
444.768	169.5
442.708	172
440.647	180.5
438.587	191
436.525	183
434.463	182
432.4	189
430.337	189
428.274	177
426.21	191.5
424.145	171.5
422.079	176
420.014	190.5
417.948	195.5
415.882	191.5
413.814	192
411.746	202
409.679	201
407.609	195
405.54	189
403.47	187.5
401.401	184.5
399.329	198.5
397.258	187.5
395.187	195
393.114	195
391.041	198.5
388.968	204.5
386.895	205.5
384.82	199.5
382.745	203.5
380.67	190
378.594	187
376.517	197.5
374.44	196
372.363	203
370.286	204
368.207	211
366.128	208
364.049	218.5
361.969	209
359.888	220
357.807	210.5
355.725	212
353.643	215.5
351.561	203
349.477	210.5
347.394	221
345.31	221.5
343.226	221
341.141	226.5
339.055	229.5
336.968	229.5
334.882	240
332.795	227
330.707	221
328.618	233
326.53	236
324.44	249.5
322.351	255
320.26	266
318.17	271
316.078	281.5
313.987	294.5
311.895	300.5
309.802	312.5
307.708	320.5
305.614	326
303.52	316
301.425	320.5
299.329	316
297.233	313.5
295.137	303
293.039	316.5
290.942	308.5
288.844	290
286.745	288.5
284.647	275
282.546	281
280.446	279.5
278.346	293.5
276.245	279.5
274.143	297
272.041	292
269.939	305.5
267.835	300
265.731	306.5
263.627	301
261.522	304.5
259.417	293
257.311	311
255.204	306.5
253.098	307.5
250.99	318.5
248.882	323
246.774	321
244.664	335
242.555	331
240.445	344.5
238.334	341.5
236.223	332.5
234.112	355.5
232	335
229.888	340.5
227.775	336
225.661	357
223.546	364.5
221.431	362
219.316	357.5
217.201	355
215.084	376.5
212.967	375
210.85	362.5
208.732	362
206.614	357.5
204.495	362
202.375	365.5
200.256	365
198.135	380
196.014	376
193.893	383
191.771	377
189.648	369
187.525	359
185.401	377
183.277	375
181.152	386
179.027	376
176.901	384
174.775	383.5
172.648	393.5
170.521	407
168.393	406
166.265	411
164.136	431.5
162.007	425.5
159.876	428.5
157.746	418
155.615	449.5
153.483	464
151.351	463.5
149.219	485
147.086	485.5
144.952	518.5
142.818	527
140.684	512
138.548	543
136.413	548.5
134.276	564.5
132.139	587.5
130.002	593
127.864	620
125.725	632.5
123.587	654
121.447	689
119.307	704
117.166	725.5
115.026	753
112.885	764
110.743	790.5
108.6	817.5
106.456	818.5
104.313	808.5
102.169	812.5
100.023	777.5
97.8789	732
95.7328	648
93.5869	570
91.4392	473
89.2919	401.5
87.1447	308.5
84.9959	245
