3528.51	271.5
3527.23	290
3525.95	302
3524.67	331
3523.39	321
3522.1	327
3520.82	337.5
3519.54	331.5
3518.26	340
3516.97	354.5
3515.69	332.5
3514.4	342.5
3513.12	317
3511.84	319
3510.55	321
3509.26	336
3507.98	337
3506.69	357
3505.41	343
3504.12	350
3502.83	365
3501.54	377.5
3500.26	368
3498.97	353
3497.68	370.5
3496.39	362
3495.1	372.5
3493.81	397
3492.52	397
3491.23	389
3489.94	406
3488.65	415
3487.36	420
3486.07	414.5
3484.78	427.5
3483.49	431.5
3482.19	433.5
3480.9	435
3479.61	435.5
3478.31	445
3477.02	459.5
3475.73	465
3474.43	468.5
3473.14	462
3471.84	464
3470.54	470.5
3469.25	450
3467.95	472
3466.66	476.5
3465.36	471
3464.06	480.5
3462.76	481.5
3461.46	503
3460.17	500.5
3458.87	503.5
3457.57	509.5
3456.27	492
3454.97	503
3453.67	513
3452.37	519
3451.07	535
3449.77	500
3448.47	519
3447.16	552
3445.86	549
3444.56	564.5
3443.26	587
3441.95	570
3440.65	599.5
3439.35	586
3438.04	591.5
3436.74	598
3435.43	629
3434.13	647
3432.82	648
3431.52	656.5
3430.21	679
3428.9	671.5
3427.6	699.5
3426.29	687
3424.98	701.5
3423.67	734
3422.36	724
3421.06	726.5
3419.75	739
3418.44	758
3417.13	760.5
3415.82	810.5
3414.51	790
3413.2	799
3411.88	799.5
3410.57	807
3409.26	810
3407.95	827
3406.64	831
3405.32	832.5
3404.01	856
3402.7	840
3401.38	864
3400.07	861.5
3398.75	880
3397.44	880.5
3396.12	860
3394.81	866.5
3393.49	891
3392.18	881.5
3390.86	885.5
3389.54	920.5
3388.23	924.5
3386.91	952
3385.59	946.5
3384.27	937.5
3382.95	935
3381.63	978
3380.31	987.5
3378.99	967
3377.67	958
3376.35	1009
3375.03	981.5
3373.71	1018
3372.39	1032
3371.07	1034.5
3369.75	1028
3368.42	1047
3367.1	1053
3365.78	1044
3364.45	1059.5
3363.13	1053.5
3361.81	1058.5
3360.48	1062.5
3359.16	1087
3357.83	1120
3356.51	1130.5
3355.18	1107.5
3353.85	1122.5
3352.53	1091.5
3351.2	1136.5
3349.87	1122.5
3348.54	1101.5
3347.22	1143
3345.89	1141.5
3344.56	1131
3343.23	1147
3341.9	1164.5
3340.57	1154
3339.24	1188
3337.91	1150
3336.58	1153
3335.25	1147
3333.92	1163.5
3332.58	1145.5
3331.25	1189
3329.92	1173
3328.59	1205.5
3327.25	1203.5
3325.92	1216
3324.58	1216.5
3323.25	1233.5
3321.92	1244.5
3320.58	1239
3319.25	1238.5
3317.91	1251.5
3316.57	1240
3315.24	1261
3313.9	1272
3312.56	1275
3311.23	1289.5
3309.89	1299
3308.55	1290.5
3307.21	1290.5
3305.87	1294
3304.53	1288
3303.19	1281.5
3301.85	1290
3300.51	1285
3299.17	1319
3297.83	1327.5
3296.49	1329.5
3295.15	1335.5
3293.81	1355.5
3292.46	1347.5
3291.12	1354
3289.78	1343
3288.43	1364.5
3287.09	1374
3285.75	1371.5
3284.4	1381.5
3283.06	1381
3281.71	1375
3280.37	1374
3279.02	1404
3277.67	1413.5
3276.33	1424
3274.98	1419
3273.63	1407
3272.28	1422.5
3270.94	1425
3269.59	1435.5
3268.24	1465
3266.89	1450
3265.54	1471.5
3264.19	1542.5
3262.84	1536
3261.49	1574
3260.14	1576.5
3258.79	1605
3257.44	1604
3256.08	1621.5
3254.73	1702.5
3253.38	1733.5
3252.03	1764
3250.67	1826
3249.32	1853.5
3247.96	1873.5
3246.61	1945.5
3245.26	1977
3243.9	2052
3242.54	2082
3241.19	2122
3239.83	2208
3238.48	2198
3237.12	2291
3235.76	2342.5
3234.41	2408.5
3233.05	2472
3231.69	2527.5
3230.33	2574.5
3228.97	2623
3227.61	2673
3226.25	2689
3224.89	2789.5
3223.53	2751.5
3222.17	2822
3220.81	2897
3219.45	2915.5
3218.09	2946
3216.72	3005.5
3215.36	3015.5
3214	3015
3212.63	3103
3211.27	3055.5
3209.91	3119.5
3208.54	3099
3207.18	3148
3205.81	3202.5
3204.45	3206
3203.08	3214.5
3201.71	3268
3200.35	3250.5
3198.98	3299.5
3197.61	3291
3196.25	3319.5
3194.88	3331.5
3193.51	3356.5
3192.14	3371.5
3190.77	3381.5
3189.4	3404
3188.03	3351.5
3186.66	3409.5
3185.29	3412
3183.92	3460
3182.55	3511.5
3181.18	3494.5
3179.81	3510.5
3178.44	3489.5
3177.06	3575.5
3175.69	3561
3174.32	3603.5
3172.94	3588.5
3171.57	3664.5
3170.2	3732.5
3168.82	3671
3167.45	3739
3166.07	3770
3164.69	3755.5
3163.32	3794.5
3161.94	3840.5
3160.56	3848.5
3159.19	3886
3157.81	3931
3156.43	3983
3155.05	4019.5
3153.67	4031
3152.3	4102.5
3150.92	4076
3149.54	4149
3148.16	4128.5
3146.78	4165
3145.4	4173
3144.01	4224
3142.63	4247
3141.25	4286
3139.87	4317
3138.49	4339.5
3137.1	4370.5
3135.72	4350
3134.34	4414.5
3132.95	4448
3131.57	4472.5
3130.18	4472
3128.8	4507.5
3127.41	4566.5
3126.03	4570.5
3124.64	4631.5
3123.25	4573.5
3121.87	4639
3120.48	4666.5
3119.09	4663.5
3117.7	4753.5
3116.32	4732
3114.93	4751
3113.54	4790.5
3112.15	4782
3110.76	4849
3109.37	4856.5
3107.98	4862
3106.59	4903.5
3105.2	4948
3103.8	4974.5
3102.41	4961.5
3101.02	4967
3099.63	5038.5
3098.23	5043
3096.84	5078.5
3095.45	5103.5
3094.05	5104
3092.66	5103
3091.26	5142.5
3089.87	5147
3088.47	5203.5
3087.08	5195.5
3085.68	5211.5
3084.28	5256.5
3082.89	5288
3081.49	5274
3080.09	5253
3078.69	5328.5
3077.3	5330
3075.9	5324.5
3074.5	5315
3073.1	5327
3071.7	5340.5
3070.3	5329
3068.9	5370.5
3067.5	5342.5
3066.09	5394.5
3064.69	5385.5
3063.29	5370
3061.89	5426.5
3060.48	5445
3059.08	5479
3057.68	5477
3056.27	5515
3054.87	5476.5
3053.46	5500
3052.06	5461
3050.65	5548.5
3049.25	5545.5
3047.84	5612
3046.44	5611.5
3045.03	5671.5
3043.62	5642.5
3042.21	5706.5
3040.81	5708
3039.4	5709
3037.99	5729.5
3036.58	5735.5
3035.17	5725.5
3033.76	5784.5
3032.35	5793.5
3030.94	5783.5
3029.53	5836
3028.12	5805
3026.71	5856.5
3025.29	5851.5
3023.88	5841.5
3022.47	5786
3021.06	5873
3019.64	5863
3018.23	5844
3016.82	5871
3015.4	5842.5
3013.99	5886.5
3012.57	5863
3011.15	5834
3009.74	5965
3008.32	5905
3006.91	5934
3005.49	5988
3004.07	6011.5
3002.65	5948
3001.24	6041.5
2999.82	6058.5
2998.4	6090.5
2996.98	6075
2995.56	6112.5
2994.14	6124
2992.72	6199.5
2991.3	6233.5
2989.88	6239.5
2988.46	6270
2987.03	6242.5
2985.61	6313.5
2984.19	6348.5
2982.77	6398
2981.34	6404
2979.92	6465.5
2978.49	6510
2977.07	6521
2975.65	6510
2974.22	6536.5
2972.79	6560
2971.37	6689
2969.94	6634
2968.52	6652.5
2967.09	6727
2965.66	6715
2964.23	6719.5
2962.81	6722.5
2961.38	6824
2959.95	6779.5
2958.52	6792.5
2957.09	6791
2955.66	6808
2954.23	6879.5
2952.8	6826
2951.37	6792
2949.94	6915
2948.5	6884.5
2947.07	6936.5
2945.64	6917
2944.21	6982.5
2942.77	6936.5
2941.34	6974
2939.91	7014.5
2938.47	7067.5
2937.04	7056
2935.6	7092
2934.17	7091
2932.73	7128.5
2931.29	7187.5
2929.86	7117.5
2928.42	7213
2926.98	7213
2925.55	7240.5
2924.11	7236
2922.67	7271.5
2921.23	7261.5
2919.79	7288
2918.35	7342
2916.91	7295
2915.47	7304
2914.03	7261.5
2912.59	7335.5
2911.15	7323
2909.71	7366
2908.26	7376
2906.82	7357
2905.38	7395
2903.94	7429
2902.49	7391
2901.05	7440
2899.6	7469.5
2898.16	7519.5
2896.71	7521.5
2895.27	7515
2893.82	7485.5
2892.38	7533.5
2890.93	7522
2889.48	7510
2888.03	7537.5
2886.59	7584
2885.14	7548
2883.69	7583
2882.24	7598.5
2880.79	7651
2879.34	7590.5
2877.89	7574
2876.44	7595.5
2874.99	7598.5
2873.54	7585
2872.09	7573.5
2870.64	7623
2869.18	7569.5
2867.73	7593
2866.28	7631.5
2864.83	7668.5
2863.37	7651.5
2861.92	7688.5
2860.46	7660
2859.01	7623
2857.55	7649
2856.1	7645
2854.64	7657
2853.19	7645
2851.73	7649
2850.27	7629.5
2848.81	7636.5
2847.36	7675.5
2845.9	7639.5
2844.44	7598.5
2842.98	7566
2841.52	7636.5
2840.06	7571.5
2838.6	7567.5
2837.14	7520.5
2835.68	7539
2834.22	7529.5
2832.76	7537.5
2831.3	7503.5
2829.83	7514.5
2828.37	7487
2826.91	7416.5
2825.44	7480.5
2823.98	7502
2822.52	7436.5
2821.05	7356.5
2819.59	7384.5
2818.12	7379
2816.66	7345
2815.19	7333
2813.72	7306.5
2812.26	7309
2810.79	7295
2809.32	7195.5
2807.85	7242.5
2806.38	7204
2804.92	7276
2803.45	7212.5
2801.98	7281
2800.51	7224
2799.04	7199
2797.57	7137.5
2796.1	7248
2794.62	7259.5
2793.15	7184.5
2791.68	7171.5
2790.21	7124
2788.73	7144
2787.26	7205
2785.79	7199.5
2784.31	7159.5
2782.84	7227
2781.36	7241.5
2779.89	7219.5
2778.41	7274
2776.94	7238.5
2775.46	7205.5
2773.99	7252.5
2772.51	7315
2771.03	7333.5
2769.55	7314.5
2768.07	7358.5
2766.6	7354.5
2765.12	7298
2763.64	7323
2762.16	7385
2760.68	7342
2759.2	7381
2757.72	7324.5
2756.24	7306.5
2754.75	7331
2753.27	7294.5
2751.79	7249
2750.31	7326
2748.82	7331
2747.34	7334.5
2745.86	7254.5
2744.37	7318
2742.89	7253.5
2741.4	7249.5
2739.92	7337
2738.43	7260
2736.94	7271.5
2735.46	7272.5
2733.97	7280.5
2732.48	7216.5
2731	7310
2729.51	7258.5
2728.02	7311
2726.53	7207
2725.04	7229.5
2723.55	7239
2722.06	7166
2720.57	7241
2719.08	7243
2717.59	7201.5
2716.1	7228
2714.61	7286.5
2713.11	7267.5
2711.62	7255
2710.13	7276
2708.64	7283
2707.14	7258
2705.65	7244.5
2704.15	7199
2702.66	7179.5
2701.16	7224
2699.67	7149.5
2698.17	7221.5
2696.67	7170.5
2695.18	7157
2693.68	7190.5
2692.18	7169.5
2690.69	7123.5
2689.19	7161
2687.69	7107.5
2686.19	7088
2684.69	7071
2683.19	7036.5
2681.69	7042
2680.19	7070.5
2678.69	7019
2677.19	7027
2675.68	6960
2674.18	6990
2672.68	7037.5
2671.18	7013
2669.67	6946
2668.17	6938
2666.66	6982
2665.16	6964.5
2663.66	6905.5
2662.15	6919
2660.64	6979
2659.14	6958.5
2657.63	6974.5
2656.13	6919
2654.62	6957
2653.11	6943
2651.6	6936.5
2650.09	6863
2648.58	6838
2647.08	6883.5
2645.57	6827
2644.06	6862
2642.55	6834.5
2641.04	6795
2639.52	6816
2638.01	6731
2636.5	6737
2634.99	6769
2633.48	6725.5
2631.96	6693.5
2630.45	6689.5
2628.94	6616.5
2627.42	6640
2625.91	6622
2624.39	6614.5
2622.88	6641.5
2621.36	6634
2619.85	6585.5
2618.33	6628.5
2616.81	6590
2615.3	6578.5
2613.78	6581.5
2612.26	6554.5
2610.74	6559
2609.22	6649.5
2607.7	6649.5
2606.18	6620.5
2604.66	6607.5
2603.14	6536.5
2601.62	6437
2600.1	6452.5
2598.58	6434
2597.06	6424
2595.54	6404
2594.01	6377.5
2592.49	6373.5
2590.97	6368
2589.44	6363.5
2587.92	6393
2586.39	6356.5
2584.87	6328
2583.34	6373.5
2581.82	6363
2580.29	6261
2578.76	6234
2577.24	6275.5
2575.71	6285.5
2574.18	6311
2572.65	6291
2571.13	6240.5
2569.6	6237
2568.07	6243
2566.54	6217
2565.01	6154
2563.48	6187
2561.95	6140.5
2560.42	6179
2558.88	6144
2557.35	6174
2555.82	6118
2554.29	6158.5
2552.75	6132
2551.22	6065
2549.69	6049
2548.15	6051.5
2546.62	6058.5
2545.08	6029.5
2543.55	6014.5
2542.01	6019.5
2540.47	6007.5
2538.94	5967
2537.4	5961
2535.86	5890
2534.33	5880.5
2532.79	5901
2531.25	5914
2529.71	5883.5
2528.17	5856.5
2526.63	5839
2525.09	5833.5
2523.55	5815.5
2522.01	5784
2520.47	5783.5
2518.92	5764
2517.38	5813
2515.84	5787
2514.3	5768
2512.75	5768
2511.21	5733.5
2509.67	5729
2508.12	5662.5
2506.58	5614.5
2505.03	5598.5
2503.49	5598
2501.94	5604.5
2500.39	5584.5
2498.85	5556
2497.3	5579.5
2495.75	5540.5
2494.2	5540.5
2492.65	5448.5
2491.11	5496
2489.56	5416.5
2488.01	5447
2486.46	5452
2484.91	5369.5
2483.36	5363.5
2481.8	5394.5
2480.25	5371.5
2478.7	5370
2477.15	5363
2475.6	5353
2474.04	5288
2472.49	5244.5
2470.93	5216
2469.38	5245
2467.83	5215
2466.27	5176.5
2464.71	5145
2463.16	5151
2461.6	5121.5
2460.05	5106
2458.49	5113.5
2456.93	5059.5
2455.37	5051.5
2453.81	5087
2452.26	4989.5
2450.7	4992.5
2449.14	4927.5
2447.58	5035.5
2446.02	4951.5
2444.46	4909.5
2442.9	4886
2441.33	4895
2439.77	4901
2438.21	4831.5
2436.65	4877.5
2435.08	4881
2433.52	4824
2431.96	4833.5
2430.39	4813
2428.83	4836
2427.26	4827.5
2425.7	4834
2424.13	4776
2422.56	4748
2421	4709
2419.43	4705
2417.86	4725.5
2416.3	4682
2414.73	4702.5
2413.16	4700
2411.59	4616.5
2410.02	4603
2408.45	4620
2406.88	4617.5
2405.31	4630
2403.74	4616.5
2402.17	4646
2400.6	4586
2399.02	4638
2397.45	4624
2395.88	4586
2394.3	4542.5
2392.73	4569.5
2391.16	4512.5
2389.58	4458
2388.01	4488.5
2386.43	4525
2384.86	4491
2383.28	4523.5
2381.7	4483
2380.13	4496.5
2378.55	4479.5
2376.97	4468
2375.39	4498
2373.81	4461
2372.23	4445
2370.65	4433
2369.07	4423
2367.49	4466
2365.91	4403
2364.33	4366.5
2362.75	4394
2361.17	4412.5
2359.59	4371
2358.01	4355
2356.42	4372
2354.84	4407
2353.25	4269
2351.67	4312.5
2350.09	4346.5
2348.5	4319
2346.92	4313.5
2345.33	4332.5
2343.74	4272
2342.16	4281.5
2340.57	4304
2338.98	4237
2337.39	4235.5
2335.81	4270.5
2334.22	4249
2332.63	4166.5
2331.04	4209
2329.45	4186
2327.86	4224
2326.27	4191
2324.68	4177.5
2323.09	4150.5
2321.49	4194
2319.9	4166
2318.31	4184
2316.72	4185
2315.12	4120
2313.53	4133
2311.93	4086
2310.34	4047
2308.74	4107
2307.15	4060
2305.55	4089.5
2303.96	4053
2302.36	4011
2300.76	4050
2299.17	4012.5
2297.57	3962
2295.97	3949
2294.37	3939.5
2292.77	3898.5
2291.17	3862
2289.57	3860.5
2287.97	3878
2286.37	3848
2284.77	3853
2283.17	3861.5
2281.57	3886
2279.96	3843.5
2278.36	3850.5
2276.76	3818.5
2275.15	3814
2273.55	3803.5
2271.95	3791
2270.34	3760.5
2268.74	3773.5
2267.13	3697.5
2265.52	3686.5
2263.92	3702
2262.31	3715.5
2260.7	3644
2259.1	3655
2257.49	3604
2255.88	3638
2254.27	3624.5
2252.66	3647.5
2251.05	3617
2249.44	3603
2247.83	3634
2246.22	3625
2244.61	3598
2243	3634.5
2241.39	3580
2239.77	3567.5
2238.16	3563
2236.55	3576
2234.93	3524.5
2233.32	3524.5
2231.7	3512
2230.09	3475.5
2228.47	3492.5
2226.86	3479
2225.24	3466.5
2223.63	3424
2222.01	3463
2220.39	3435.5
2218.77	3387.5
2217.16	3393
2215.54	3359
2213.92	3334
2212.3	3357.5
2210.68	3317
2209.06	3302.5
2207.44	3329.5
2205.82	3304.5
2204.19	3249
2202.57	3278
2200.95	3242.5
2199.33	3269.5
2197.7	3244.5
2196.08	3243
2194.46	3270.5
2192.83	3280
2191.21	3286
2189.58	3219.5
2187.96	3201
2186.33	3229.5
2184.7	3196
2183.08	3186
2181.45	3151.5
2179.82	3215
2178.19	3169.5
2176.57	3172
2174.94	3155
2173.31	3128.5
2171.68	3148.5
2170.05	3097
2168.42	3118.5
2166.79	3068.5
2165.16	3064
2163.52	3072.5
2161.89	3048
2160.26	3029
2158.63	3052
2156.99	3022.5
2155.36	3028
2153.73	3061
2152.09	2999.5
2150.46	2982.5
2148.82	2990.5
2147.18	2972.5
2145.55	2955
2143.91	2950
2142.27	2932
2140.64	2917.5
2139	2916.5
2137.36	2921
2135.72	2855
2134.08	2864
2132.44	2864.5
2130.8	2833.5
2129.16	2851.5
2127.52	2801.5
2125.88	2788.5
2124.24	2765
2122.6	2733
2120.95	2745.5
2119.31	2784.5
2117.67	2723
2116.02	2739.5
2114.38	2702
2112.74	2712
2111.09	2684.5
2109.45	2685
2107.8	2641.5
2106.15	2638.5
2104.51	2645.5
2102.86	2670.5
2101.21	2649
2099.56	2658.5
2097.92	2643
2096.27	2584.5
2094.62	2601
2092.97	2603.5
2091.32	2579.5
2089.67	2562.5
2088.02	2576.5
2086.37	2566.5
2084.72	2595.5
2083.06	2564.5
2081.41	2564
2079.76	2575.5
2078.1	2551.5
2076.45	2560
2074.8	2556.5
2073.14	2528.5
2071.49	2558
2069.83	2523
2068.18	2551
2066.52	2546.5
2064.86	2502.5
2063.21	2496
2061.55	2523.5
2059.89	2498
2058.23	2517
2056.57	2519.5
2054.92	2478.5
2053.26	2466.5
2051.6	2489
2049.94	2494
2048.27	2423
2046.61	2457
2044.95	2430.5
2043.29	2432
2041.63	2423
2039.97	2378.5
2038.3	2405
2036.64	2330
2034.97	2372
2033.31	2339.5
2031.64	2363.5
2029.98	2358
2028.31	2309
2026.65	2284.5
2024.98	2287.5
2023.31	2323.5
2021.65	2278
2019.98	2258.5
2018.31	2256
2016.64	2218
2014.97	2226
2013.3	2206.5
2011.63	2256
2009.96	2209
2008.29	2189
2006.62	2229.5
2004.95	2212
2003.28	2214
2001.6	2219
1999.93	2190.5
1998.26	2180
1996.58	2167.5
1994.91	2171
1993.24	2172.5
1991.56	2146.5
1989.89	2138
1988.21	2151
1986.53	2152
1984.86	2153.5
1983.18	2102.5
1981.5	2109.5
1979.82	2091.5
1978.15	2088
1976.47	2046.5
1974.79	2050.5
1973.11	2080
1971.43	2076
1969.75	2106.5
1968.07	2048
1966.38	2054.5
1964.7	2068
1963.02	2020
1961.34	2000
1959.66	2062
1957.97	2018
1956.29	1988.5
1954.6	1984.5
1952.92	1976
1951.23	2020
1949.55	1974
1947.86	1984
1946.18	1960.5
1944.49	1963
1942.8	1978
1941.11	1907
1939.43	1904
1937.74	1912.5
1936.05	1910
1934.36	1918.5
1932.67	1911
1930.98	1889
1929.29	1894.5
1927.6	1835
1925.91	1872.5
1924.21	1854
1922.52	1873.5
1920.83	1838.5
1919.14	1818.5
1917.44	1836
1915.75	1828
1914.05	1821.5
1912.36	1816
1910.66	1822
1908.97	1800
1907.27	1815.5
1905.58	1839.5
1903.88	1785
1902.18	1784
1900.48	1780.5
1898.79	1765.5
1897.09	1766.5
1895.39	1766
1893.69	1745.5
1891.99	1743
1890.29	1748.5
1888.59	1714.5
1886.89	1719.5
1885.18	1693
1883.48	1717
1881.78	1708.5
1880.08	1699.5
1878.37	1655.5
1876.67	1648
1874.96	1627
1873.26	1610
1871.55	1658.5
1869.85	1664
1868.14	1633.5
1866.44	1651
1864.73	1610
1863.02	1619.5
1861.32	1589.5
1859.61	1597.5
1857.9	1585
1856.19	1601
1854.48	1597.5
1852.77	1604.5
1851.06	1592
1849.35	1592
1847.64	1609.5
1845.93	1601
1844.21	1575.5
1842.5	1568.5
1840.79	1537
1839.08	1550
1837.36	1565.5
1835.65	1557
1833.93	1543.5
1832.22	1517
1830.5	1540
1828.79	1537
1827.07	1526
1825.36	1522.5
1823.64	1499
1821.92	1474
1820.2	1500
1818.48	1474.5
1816.77	1472
1815.05	1453
1813.33	1470
1811.61	1448
1809.89	1464
1808.16	1455
1806.44	1466
1804.72	1463
1803	1440
1801.28	1397
1799.55	1398
1797.83	1426
1796.11	1446.5
1794.38	1398
1792.66	1427
1790.93	1414.5
1789.21	1415.5
1787.48	1399
1785.75	1396
1784.03	1393.5
1782.3	1379.5
1780.57	1342.5
1778.84	1357.5
1777.11	1339
1775.38	1346
1773.66	1369.5
1771.93	1396
1770.19	1368.5
1768.46	1377.5
1766.73	1398.5
1765	1364
1763.27	1377.5
1761.54	1386.5
1759.8	1364
1758.07	1389.5
1756.34	1400
1754.6	1377
1752.87	1393.5
1751.13	1393.5
1749.4	1426.5
1747.66	1430
1745.92	1417
1744.19	1411.5
1742.45	1377
1740.71	1388.5
1738.97	1383
1737.23	1332
1735.49	1385
1733.75	1336.5
1732.01	1324
1730.27	1358.5
1728.53	1352.5
1726.79	1330
1725.05	1309.5
1723.31	1337.5
1721.57	1294.5
1719.82	1322
1718.08	1290.5
1716.34	1266
1714.59	1287
1712.85	1292.5
1711.1	1281.5
1709.36	1272.5
1707.61	1277
1705.86	1268
1704.12	1253.5
1702.37	1226.5
1700.62	1240.5
1698.87	1230
1697.12	1234.5
1695.37	1240.5
1693.62	1265
1691.87	1241
1690.12	1237
1688.37	1221.5
1686.62	1249
1684.87	1226.5
1683.12	1210
1681.36	1212.5
1679.61	1237
1677.86	1222
1676.1	1224
1674.35	1221.5
1672.59	1250
1670.84	1239.5
1669.08	1288.5
1667.33	1303
1665.57	1315
1663.81	1386.5
1662.06	1383.5
1660.3	1435.5
1658.54	1462
1656.78	1456
1655.02	1450.5
1653.26	1429
1651.5	1380.5
1649.74	1366
1647.98	1308
1646.22	1299.5
1644.46	1236.5
1642.7	1234
1640.93	1186
1639.17	1203
1637.41	1189.5
1635.64	1182.5
1633.88	1175.5
1632.11	1152
1630.35	1156.5
1628.58	1198.5
1626.81	1142
1625.05	1142.5
1623.28	1137.5
1621.51	1117.5
1619.75	1124
1617.98	1111.5
1616.21	1128
1614.44	1121
1612.67	1137.5
1610.9	1148
1609.13	1138
1607.36	1108.5
1605.58	1103.5
1603.81	1112
1602.04	1095.5
1600.27	1095
1598.49	1107.5
1596.72	1098.5
1594.95	1108.5
1593.17	1100.5
1591.4	1084
1589.62	1117
1587.84	1103
1586.07	1121
1584.29	1129
1582.51	1108
1580.74	1107
1578.96	1091
1577.18	1084.5
1575.4	1098
1573.62	1061.5
1571.84	1075.5
1570.06	1098
1568.28	1074
1566.5	1089.5
1564.72	1038
1562.93	1065.5
1561.15	1040.5
1559.37	1048
1557.58	1055.5
1555.8	1059.5
1554.02	1058.5
1552.23	1077
1550.45	1032.5
1548.66	1065
1546.87	1051
1545.09	1079
1543.3	1044
1541.51	1035
1539.72	1034
1537.94	1029
1536.15	1019
1534.36	1017.5
1532.57	1026
1530.78	1006.5
1528.99	1034
1527.2	1022.5
1525.4	1026.5
1523.61	1028
1521.82	1021
1520.03	1018.5
1518.23	1009
1516.44	1024
1514.65	1021
1512.85	1040
1511.06	1029.5
1509.26	1021.5
1507.46	1017.5
1505.67	1041.5
1503.87	1037
1502.07	1029.5
1500.28	1028.5
1498.48	1019
1496.68	1027.5
1494.88	1052.5
1493.08	1059
1491.28	1040
1489.48	1062.5
1487.68	1079.5
1485.88	1114.5
1484.08	1118
1482.27	1088.5
1480.47	1100.5
1478.67	1109.5
1476.86	1125
1475.06	1174.5
1473.25	1189
1471.45	1234.5
1469.64	1266.5
1467.84	1282
1466.03	1345
1464.23	1349.5
1462.42	1375
1460.61	1411.5
1458.8	1404.5
1456.99	1463
1455.18	1473.5
1453.37	1491.5
1451.56	1543
1449.75	1581.5
1447.94	1588
1446.13	1625
1444.32	1640
1442.51	1675
1440.7	1670.5
1438.88	1644.5
1437.07	1587.5
1435.26	1483
1433.44	1441.5
1431.63	1356.5
1429.81	1296
1427.99	1270.5
1426.18	1224
1424.36	1210.5
1422.54	1200.5
1420.73	1147.5
1418.91	1117
1417.09	1082
1415.27	1069.5
1413.45	1046
1411.63	1030
1409.81	1047.5
1407.99	1026.5
1406.17	1052.5
1404.35	1056.5
1402.53	1021.5
1400.7	1058
1398.88	1017.5
1397.06	1004.5
1395.23	1009
1393.41	991
1391.58	1002.5
1389.76	1014.5
1387.93	1020.5
1386.11	1034
1384.28	1000
1382.45	1024.5
1380.62	1002
1378.8	1033.5
1376.97	1025
1375.14	1029
1373.31	1003.5
1371.48	1018
1369.65	1006.5
1367.82	997.5
1365.99	1024.5
1364.16	1017
1362.32	1025.5
1360.49	1030
1358.66	1019.5
1356.82	1022
1354.99	1032.5
1353.16	1013
1351.32	1023.5
1349.48	1023
1347.65	1014
1345.81	1055.5
1343.98	1015.5
1342.14	1021
1340.3	1029
1338.46	1020
1336.62	999.5
1334.79	1063
1332.95	1072.5
1331.11	1061
1329.27	1087
1327.42	1069
1325.58	1113.5
1323.74	1110
1321.9	1135.5
1320.06	1174.5
1318.21	1190.5
1316.37	1197
1314.53	1241
1312.68	1267.5
1310.84	1312.5
1308.99	1335
1307.15	1353.5
1305.3	1413.5
1303.45	1434.5
1301.61	1434.5
1299.76	1415
1297.91	1426
1296.06	1390.5
1294.21	1315.5
1292.36	1274
1290.51	1221
1288.66	1229.5
1286.81	1216
1284.96	1214.5
1283.11	1195.5
1281.26	1190
1279.4	1224.5
1277.55	1229
1275.7	1216
1273.84	1234.5
1271.99	1215.5
1270.13	1223.5
1268.28	1226.5
1266.42	1240
1264.56	1257
1262.71	1227
1260.85	1216
1258.99	1247.5
1257.13	1208.5
1255.27	1189
1253.41	1200
1251.56	1131.5
1249.7	1108
1247.83	1119
1245.97	1103.5
1244.11	1053.5
1242.25	1057.5
1240.39	1077.5
1238.52	1089.5
1236.66	1057
1234.8	1088.5
1232.93	1076
1231.07	1038.5
1229.2	1039.5
1227.34	1018
1225.47	1049
1223.6	995.5
1221.74	1009.5
1219.87	1015
1218	1044
1216.13	1024.5
1214.26	1041
1212.39	996
1210.53	1017
1208.65	1006.5
1206.78	1013.5
1204.91	1004
1203.04	1005.5
1201.17	985.5
1199.3	1002
1197.42	991
1195.55	1004.5
1193.68	999.5
1191.8	1022
1189.93	999
1188.05	993
1186.17	986.5
1184.3	987.5
1182.42	973
1180.54	990
1178.67	986
1176.79	1030
1174.91	1013
1173.03	1047
1171.15	999.5
1169.27	990.5
1167.39	1015.5
1165.51	986
1163.63	1006
1161.75	983.5
1159.86	1007.5
1157.98	1014
1156.1	999
1154.21	1007
1152.33	1005
1150.44	1023.5
1148.56	1060
1146.67	1011
1144.79	1019.5
1142.9	1015
1141.01	1042.5
1139.12	1054
1137.24	1049
1135.35	1066
1133.46	1100
1131.57	1122.5
1129.68	1140.5
1127.79	1155.5
1125.9	1152.5
1124.01	1130.5
1122.12	1127.5
1120.22	1129.5
1118.33	1123
1116.44	1129.5
1114.54	1149
1112.65	1137
1110.75	1123.5
1108.86	1132.5
1106.96	1145
1105.07	1153.5
1103.17	1201
1101.27	1175
1099.38	1197
1097.48	1240
1095.58	1277
1093.68	1272
1091.78	1264
1089.88	1298.5
1087.98	1329
1086.08	1320
1084.18	1320
1082.28	1310.5
1080.38	1324.5
1078.47	1328
1076.57	1308.5
1074.67	1280
1072.76	1285.5
1070.86	1279.5
1068.95	1318
1067.05	1321
1065.14	1348
1063.24	1309
1061.33	1284.5
1059.42	1265.5
1057.51	1270.5
1055.6	1211.5
1053.7	1192
1051.79	1184.5
1049.88	1195.5
1047.97	1198.5
1046.06	1204.5
1044.14	1202.5
1042.23	1208.5
1040.32	1221.5
1038.41	1201
1036.5	1194.5
1034.58	1154.5
1032.67	1230
1030.75	1208.5
1028.84	1202.5
1026.92	1182.5
1025.01	1217
1023.09	1194
1021.17	1200
1019.26	1199
1017.34	1191
1015.42	1197
1013.5	1182
1011.58	1190.5
1009.66	1166.5
1007.74	1200
1005.82	1193.5
1003.9	1182
1001.98	1205
1000.06	1197.5
998.134	1226
996.212	1254.5
994.288	1219.5
992.364	1247
990.44	1241
988.515	1278.5
986.589	1264.5
984.663	1283
982.737	1319.5
980.81	1329
978.883	1351
976.955	1375.5
975.027	1379.5
973.098	1404.5
971.169	1425
969.239	1390
967.308	1387
965.378	1392.5
963.447	1421.5
961.516	1401.5
959.583	1413.5
957.65	1419.5
955.718	1429
953.784	1411
951.85	1486.5
949.916	1456.5
947.981	1459.5
946.045	1456
944.109	1466
942.173	1489.5
940.236	1497
938.298	1464.5
936.36	1480.5
934.422	1473.5
932.484	1459.5
930.544	1430
928.604	1397
926.664	1372.5
924.724	1359.5
922.782	1327.5
920.84	1348.5
918.898	1347.5
916.955	1371
915.012	1314.5
913.068	1358.5
911.124	1362.5
909.18	1371.5
907.235	1354
905.289	1354.5
903.343	1367.5
901.397	1388
899.45	1409
897.502	1342
895.554	1399
893.605	1434
891.657	1456.5
889.707	1453.5
887.758	1483
885.807	1457.5
883.856	1462
881.905	1487
879.953	1478.5
878.001	1496
876.048	1497.5
874.094	1503.5
872.14	1517
870.186	1528.5
868.232	1503.5
866.276	1539
864.321	1539
862.365	1518.5
860.408	1529
858.451	1543
856.493	1519.5
854.535	1485.5
852.576	1526
850.617	1484.5
848.658	1501.5
846.698	1488
844.737	1494.5
842.776	1497
840.814	1467.5
838.852	1486.5
836.89	1446
834.927	1449
832.963	1397.5
830.999	1411.5
829.035	1385.5
827.07	1381
825.105	1369
823.139	1362.5
821.172	1367
819.206	1372
817.238	1350
815.27	1346.5
813.301	1339
811.333	1327
809.363	1342.5
807.394	1314.5
805.424	1292.5
803.453	1288.5
801.482	1287
799.509	1299
797.538	1290
795.565	1311
793.592	1273
791.618	1262.5
789.643	1245.5
787.669	1266
785.693	1267.5
783.718	1283.5
781.742	1248.5
779.765	1276.5
777.788	1305.5
775.811	1265
773.832	1274.5
771.853	1299.5
769.875	1280
767.895	1265
765.915	1269
763.934	1280.5
761.953	1281.5
759.972	1281.5
757.99	1285.5
756.007	1268.5
754.024	1269.5
752.041	1306.5
750.056	1271.5
748.072	1293
746.087	1265
744.102	1313.5
742.116	1280
740.13	1262.5
738.143	1293
736.155	1289
734.167	1316
732.179	1316.5
730.19	1329
728.2	1336.5
726.21	1323
724.22	1334
722.229	1319.5
720.237	1303.5
718.246	1317.5
716.253	1319
714.26	1296
712.267	1319
710.273	1291.5
708.279	1326.5
706.284	1311
704.289	1309
702.293	1290.5
700.296	1323
698.3	1289.5
696.303	1315.5
694.305	1295.5
692.307	1319
690.307	1317
688.308	1343.5
686.309	1306
684.308	1327
682.308	1330.5
680.306	1351
678.304	1344.5
676.302	1359.5
674.3	1359
672.296	1347.5
670.293	1336.5
668.289	1357.5
666.284	1361
664.278	1364.5
662.273	1379
660.266	1386
658.26	1376
656.252	1387
654.244	1402
652.237	1364
650.227	1382
648.218	1371.5
646.209	1327
644.198	1378.5
642.188	1359
640.177	1400
638.165	1383.5
636.153	1378
634.14	1409
632.128	1385
630.113	1383
628.099	1396
626.085	1429.5
624.07	1418
622.054	1450
620.038	1445
618.021	1416
616.004	1476
613.986	1461
611.968	1438.5
609.949	1452.5
607.93	1455
605.911	1452
603.891	1471.5
601.87	1447.5
599.848	1455
597.827	1450
595.805	1477
593.782	1442
591.759	1506.5
589.735	1471.5
587.711	1483
585.687	1481
583.661	1452.5
581.636	1478.5
579.609	1468
577.583	1476.5
575.555	1494.5
573.527	1489
571.5	1487.5
569.471	1518
567.441	1513
565.412	1524.5
563.382	1520.5
561.351	1506
559.32	1504
557.289	1530.5
555.257	1535.5
553.223	1548.5
551.19	1539
549.157	1592.5
547.122	1634
545.088	1621
543.053	1684.5
541.017	1738.5
538.981	1770
536.943	1846.5
534.907	1962
532.869	2142.5
530.831	2510
528.792	3110.5
526.752	4174.5
524.713	5799.5
522.673	7278.5
520.632	7509.5
518.591	6504
516.549	5054.5
514.507	3799.5
512.464	2899.5
510.42	2380
508.377	2050.5
506.332	1910.5
504.288	1828.5
502.242	1762
500.196	1755
498.15	1699
496.104	1696.5
494.056	1676.5
492.008	1694.5
489.96	1685.5
487.911	1661
485.862	1643
483.812	1662
481.761	1644
479.71	1639
477.659	1661
475.607	1664
473.555	1653
471.502	1652
469.448	1642
467.395	1629
465.34	1634
463.285	1595
461.23	1646.5
459.174	1635
457.118	1647
455.061	1678
453.003	1641.5
450.945	1679.5
448.887	1671
446.828	1710.5
444.768	1667
442.708	1690
440.647	1702.5
438.587	1708.5
436.525	1728.5
434.463	1718.5
432.4	1716.5
430.337	1733
428.274	1748.5
426.21	1725
424.145	1769.5
422.079	1715
420.014	1719
417.948	1749.5
415.882	1725
413.814	1755.5
411.746	1765.5
409.679	1740.5
407.609	1783
405.54	1784.5
403.47	1796.5
401.401	1760
399.329	1779
397.258	1760
395.187	1747.5
393.114	1790.5
391.041	1754
388.968	1779
386.895	1800.5
384.82	1809.5
382.745	1810.5
380.67	1796
378.594	1803
376.517	1824.5
374.44	1790
372.363	1801
370.286	1832
368.207	1800
366.128	1811
364.049	1840
361.969	1824.5
359.888	1814
357.807	1862
355.725	1841.5
353.643	1856.5
351.561	1854.5
349.477	1867.5
347.394	1846.5
345.31	1873
343.226	1851
341.141	1877
339.055	1872
336.968	1918.5
334.882	1907
332.795	1913.5
330.707	1919
328.618	1964.5
326.53	1941.5
324.44	1956.5
322.351	1941.5
320.26	1951.5
318.17	1997
316.078	1975
313.987	2038.5
311.895	2070.5
309.802	2094.5
307.708	2125
305.614	2165
303.52	2117
301.425	2155.5
299.329	2103
297.233	2126
295.137	2091.5
293.039	2065
290.942	2061.5
288.844	2070
286.745	2084.5
284.647	2100
282.546	2082
280.446	2083
278.346	2103.5
276.245	2070
274.143	2114.5
272.041	2098.5
269.939	2081
267.835	2103.5
265.731	2078.5
263.627	2101
261.522	2087
259.417	2127.5
257.311	2130.5
255.204	2111.5
253.098	2119.5
250.99	2129.5
248.882	2139.5
246.774	2134.5
244.664	2117
242.555	2165.5
240.445	2180.5
238.334	2203
236.223	2199.5
234.112	2214
232	2174.5
229.888	2225
227.775	2256.5
225.661	2247
223.546	2257
221.431	2258.5
219.316	2268
217.201	2259.5
215.084	2260
212.967	2284
210.85	2268.5
208.732	2314.5
206.614	2279
204.495	2293.5
202.375	2306.5
200.256	2308.5
198.135	2324
196.014	2315
193.893	2312.5
191.771	2308.5
189.648	2366.5
187.525	2291.5
185.401	2344
183.277	2320
181.152	2313.5
179.027	2299.5
176.901	2311.5
174.775	2325.5
172.648	2345
170.521	2318
168.393	2333.5
166.265	2370.5
164.136	2404.5
162.007	2405
159.876	2451
157.746	2417
155.615	2449.5
153.483	2488.5
151.351	2489
149.219	2560
147.086	2571.5
144.952	2650
142.818	2690.5
140.684	2711
138.548	2758.5
136.413	2847
134.276	2864
132.139	2926
130.002	2966
127.864	3029
125.725	3132.5
123.587	3209
121.447	3255
119.307	3286
117.166	3334
115.026	3434.5
112.885	3523.5
110.743	3559.5
108.6	3629.5
106.456	3676
104.313	3649.5
102.169	3561
100.023	3464
97.8789	3234
95.7328	2960.5
93.5869	2584.5
91.4392	2223
89.2919	1800
87.1447	1431.5
84.9959	1094.5
