3528.51	224.5
3527.23	250.5
3525.95	268.5
3524.67	269
3523.39	297
3522.1	276.5
3520.82	274
3519.54	259
3518.26	253.5
3516.97	265
3515.69	264.5
3514.4	270.5
3513.12	296.5
3511.84	290
3510.55	280
3509.26	286.5
3507.98	293.5
3506.69	298
3505.41	286
3504.12	287
3502.83	283
3501.54	301.5
3500.26	304
3498.97	320
3497.68	315.5
3496.39	340.5
3495.1	328.5
3493.81	328
3492.52	332.5
3491.23	347
3489.94	334
3488.65	334
3487.36	343
3486.07	343.5
3484.78	367
3483.49	372
3482.19	377
3480.9	382.5
3479.61	388.5
3478.31	395
3477.02	389
3475.73	381.5
3474.43	382.5
3473.14	392
3471.84	395
3470.54	399
3469.25	410.5
3467.95	401.5
3466.66	413.5
3465.36	413.5
3464.06	404.5
3462.76	407.5
3461.46	410.5
3460.17	395.5
3458.87	418
3457.57	419.5
3456.27	419.5
3454.97	426.5
3453.67	444.5
3452.37	439.5
3451.07	454
3449.77	457
3448.47	444
3447.16	455
3445.86	468.5
3444.56	469
3443.26	455.5
3441.95	478
3440.65	490
3439.35	520.5
3438.04	500
3436.74	521
3435.43	536.5
3434.13	556
3432.82	538
3431.52	554
3430.21	558
3428.9	568
3427.6	574
3426.29	570
3424.98	591.5
3423.67	604
3422.36	618.5
3421.06	616.5
3419.75	626
3418.44	644.5
3417.13	643
3415.82	645
3414.51	632
3413.2	637
3411.88	653
3410.57	673.5
3409.26	678.5
3407.95	686
3406.64	702
3405.32	704
3404.01	695.5
3402.7	712
3401.38	691
3400.07	702.5
3398.75	725.5
3397.44	754
3396.12	729.5
3394.81	744
3393.49	752
3392.18	752
3390.86	745
3389.54	763.5
3388.23	759
3386.91	765
3385.59	763.5
3384.27	771.5
3382.95	776.5
3381.63	813
3380.31	794
3378.99	817.5
3377.67	814.5
3376.35	812.5
3375.03	833.5
3373.71	839
3372.39	845.5
3371.07	844.5
3369.75	848
3368.42	858
3367.1	860.5
3365.78	861
3364.45	877.5
3363.13	870.5
3361.81	909
3360.48	920
3359.16	902
3357.83	912
3356.51	892.5
3355.18	931
3353.85	913.5
3352.53	905.5
3351.2	920.5
3349.87	904
3348.54	917
3347.22	943.5
3345.89	948.5
3344.56	960.5
3343.23	947.5
3341.9	932
3340.57	932.5
3339.24	937
3337.91	941.5
3336.58	954
3335.25	947
3333.92	977
3332.58	974.5
3331.25	968
3329.92	1002
3328.59	984
3327.25	1009.5
3325.92	997.5
3324.58	988
3323.25	975.5
3321.92	993.5
3320.58	1003.5
3319.25	1014
3317.91	1045.5
3316.57	1005.5
3315.24	1029
3313.9	1037.5
3312.56	1048.5
3311.23	1062.5
3309.89	1045
3308.55	1066
3307.21	1060
3305.87	1074.5
3304.53	1063
3303.19	1100
3301.85	1077.5
3300.51	1095
3299.17	1105.5
3297.83	1132
3296.49	1110.5
3295.15	1111
3293.81	1142
3292.46	1120.5
3291.12	1099
3289.78	1125.5
3288.43	1125
3287.09	1143
3285.75	1144
3284.4	1121.5
3283.06	1151
3281.71	1168.5
3280.37	1158.5
3279.02	1153.5
3277.67	1174
3276.33	1151
3274.98	1192.5
3273.63	1178.5
3272.28	1170.5
3270.94	1228
3269.59	1246
3268.24	1243.5
3266.89	1245
3265.54	1265
3264.19	1292.5
3262.84	1298.5
3261.49	1334.5
3260.14	1342
3258.79	1346.5
3257.44	1367
3256.08	1423.5
3254.73	1459.5
3253.38	1487.5
3252.03	1499.5
3250.67	1558.5
3249.32	1590
3247.96	1601
3246.61	1665
3245.26	1723
3243.9	1762
3242.54	1784
3241.19	1842
3239.83	1911.5
3238.48	1957
3237.12	1990.5
3235.76	2043.5
3234.41	2075
3233.05	2149.5
3231.69	2173.5
3230.33	2196
3228.97	2222
3227.61	2295
3226.25	2353
3224.89	2333
3223.53	2355.5
3222.17	2448.5
3220.81	2453
3219.45	2479
3218.09	2507.5
3216.72	2531
3215.36	2552.5
3214	2593
3212.63	2569.5
3211.27	2597.5
3209.91	2598.5
3208.54	2658
3207.18	2668
3205.81	2678
3204.45	2696
3203.08	2698
3201.71	2718.5
3200.35	2770
3198.98	2739.5
3197.61	2754.5
3196.25	2774.5
3194.88	2807.5
3193.51	2819.5
3192.14	2807
3190.77	2823
3189.4	2856
3188.03	2861.5
3186.66	2903
3185.29	2885.5
3183.92	2884
3182.55	2910.5
3181.18	2914.5
3179.81	2967.5
3178.44	2988.5
3177.06	3008.5
3175.69	3033
3174.32	3042
3172.94	3087
3171.57	3064
3170.2	3105
3168.82	3079.5
3167.45	3119
3166.07	3185
3164.69	3170
3163.32	3225
3161.94	3263.5
3160.56	3247
3159.19	3281
3157.81	3297.5
3156.43	3318
3155.05	3329.5
3153.67	3368
3152.3	3372.5
3150.92	3424.5
3149.54	3422
3148.16	3476
3146.78	3526.5
3145.4	3512.5
3144.01	3597
3142.63	3577.5
3141.25	3632
3139.87	3633
3138.49	3676.5
3137.1	3652
3135.72	3713
3134.34	3663
3132.95	3742.5
3131.57	3780
3130.18	3812.5
3128.8	3845.5
3127.41	3853.5
3126.03	3870
3124.64	3899
3123.25	3933.5
3121.87	3924
3120.48	3935.5
3119.09	3999.5
3117.7	3978
3116.32	4001.5
3114.93	3992
3113.54	4045
3112.15	4048.5
3110.76	4033
3109.37	4097.5
3107.98	4147
3106.59	4130
3105.2	4107
3103.8	4104.5
3102.41	4228
3101.02	4192.5
3099.63	4219.5
3098.23	4221
3096.84	4246.5
3095.45	4275
3094.05	4218.5
3092.66	4265
3091.26	4303
3089.87	4295.5
3088.47	4316
3087.08	4307
3085.68	4336
3084.28	4362
3082.89	4366.5
3081.49	4438.5
3080.09	4416.5
3078.69	4432
3077.3	4434.5
3075.9	4419
3074.5	4395
3073.1	4456
3071.7	4473
3070.3	4477.5
3068.9	4471
3067.5	4559
3066.09	4550
3064.69	4533.5
3063.29	4569
3061.89	4583.5
3060.48	4571.5
3059.08	4586.5
3057.68	4581.5
3056.27	4605
3054.87	4549.5
3053.46	4601.5
3052.06	4645
3050.65	4668
3049.25	4681.5
3047.84	4699.5
3046.44	4701
3045.03	4729
3043.62	4685.5
3042.21	4721.5
3040.81	4711
3039.4	4755
3037.99	4728.5
3036.58	4744
3035.17	4806
3033.76	4797.5
3032.35	4834
3030.94	4817
3029.53	4857
3028.12	4859
3026.71	4865.5
3025.29	4879.5
3023.88	4849.5
3022.47	4932.5
3021.06	4855
3019.64	4863.5
3018.23	4889
3016.82	4869
3015.4	4945
3013.99	4891.5
3012.57	4945
3011.15	4967
3009.74	4925
3008.32	4934
3006.91	5006.5
3005.49	4945.5
3004.07	5033
3002.65	5008
3001.24	5073.5
2999.82	5090.5
2998.4	5086.5
2996.98	5129
2995.56	5178.5
2994.14	5176.5
2992.72	5229
2991.3	5206.5
2989.88	5281
2988.46	5221.5
2987.03	5303
2985.61	5355.5
2984.19	5356.5
2982.77	5435
2981.34	5460.5
2979.92	5497.5
2978.49	5482.5
2977.07	5516.5
2975.65	5493
2974.22	5543
2972.79	5583.5
2971.37	5586
2969.94	5652.5
2968.52	5661
2967.09	5680
2965.66	5662.5
2964.23	5681
2962.81	5716.5
2961.38	5756.5
2959.95	5761
2958.52	5691
2957.09	5767.5
2955.66	5769.5
2954.23	5715
2952.8	5775
2951.37	5807.5
2949.94	5779.5
2948.5	5758.5
2947.07	5777.5
2945.64	5776.5
2944.21	5850.5
2942.77	5842
2941.34	5860
2939.91	5825.5
2938.47	5885
2937.04	5895
2935.6	5936.5
2934.17	5932.5
2932.73	5980.5
2931.29	5982
2929.86	5946
2928.42	6036.5
2926.98	6013
2925.55	6003.5
2924.11	6084.5
2922.67	6023.5
2921.23	6061
2919.79	6054.5
2918.35	6075
2916.91	6023.5
2915.47	6131.5
2914.03	6061.5
2912.59	6090.5
2911.15	6095.5
2909.71	6095
2908.26	6055
2906.82	6081
2905.38	6124.5
2903.94	6079.5
2902.49	6164
2901.05	6156
2899.6	6159
2898.16	6137
2896.71	6154.5
2895.27	6177.5
2893.82	6124.5
2892.38	6177.5
2890.93	6160.5
2889.48	6151
2888.03	6192.5
2886.59	6217
2885.14	6223
2883.69	6226.5
2882.24	6248.5
2880.79	6297
2879.34	6293.5
2877.89	6267.5
2876.44	6300.5
2874.99	6308.5
2873.54	6318
2872.09	6319.5
2870.64	6284
2869.18	6319
2867.73	6360.5
2866.28	6325.5
2864.83	6342.5
2863.37	6323
2861.92	6310
2860.46	6368.5
2859.01	6275
2857.55	6327
2856.1	6344.5
2854.64	6322
2853.19	6404.5
2851.73	6372
2850.27	6346.5
2848.81	6382
2847.36	6380.5
2845.9	6356
2844.44	6292
2842.98	6353
2841.52	6266
2840.06	6254
2838.6	6221
2837.14	6213
2835.68	6254.5
2834.22	6237.5
2832.76	6219.5
2831.3	6256.5
2829.83	6212.5
2828.37	6178
2826.91	6206.5
2825.44	6193.5
2823.98	6162.5
2822.52	6197
2821.05	6147.5
2819.59	6195
2818.12	6120.5
2816.66	6144.5
2815.19	6144
2813.72	6057.5
2812.26	6104
2810.79	6140.5
2809.32	6067
2807.85	6042
2806.38	6079.5
2804.92	6108
2803.45	6108
2801.98	6068
2800.51	6100.5
2799.04	6091.5
2797.57	6095
2796.1	6071.5
2794.62	6064
2793.15	6021
2791.68	6047
2790.21	6020.5
2788.73	6008
2787.26	6073.5
2785.79	6037
2784.31	6081.5
2782.84	6112
2781.36	6112
2779.89	6143.5
2778.41	6119.5
2776.94	6056
2775.46	6081
2773.99	6136
2772.51	6158.5
2771.03	6174.5
2769.55	6101.5
2768.07	6146
2766.6	6119
2765.12	6132
2763.64	6161
2762.16	6178.5
2760.68	6119.5
2759.2	6115.5
2757.72	6168
2756.24	6106
2754.75	6101.5
2753.27	6078
2751.79	6097
2750.31	6115
2748.82	6083.5
2747.34	6084
2745.86	6064
2744.37	6116.5
2742.89	6064.5
2741.4	5983
2739.92	6069
2738.43	6067
2736.94	6042
2735.46	6079
2733.97	6100
2732.48	6093.5
2731	6111
2729.51	6116.5
2728.02	6096
2726.53	6066.5
2725.04	6058
2723.55	6094.5
2722.06	6060.5
2720.57	6140
2719.08	6026
2717.59	6047
2716.1	6062.5
2714.61	6074.5
2713.11	6068
2711.62	6073
2710.13	6100.5
2708.64	6042
2707.14	5953
2705.65	6033
2704.15	5983.5
2702.66	5992.5
2701.16	5939.5
2699.67	5940
2698.17	5980
2696.67	5966
2695.18	5955
2693.68	5966.5
2692.18	5953
2690.69	5907.5
2689.19	5932.5
2687.69	5890
2686.19	5867
2684.69	5876.5
2683.19	5840
2681.69	5838
2680.19	5811.5
2678.69	5838
2677.19	5830
2675.68	5746.5
2674.18	5731.5
2672.68	5778.5
2671.18	5745.5
2669.67	5753.5
2668.17	5792
2666.66	5749
2665.16	5781.5
2663.66	5748
2662.15	5745
2660.64	5733.5
2659.14	5784
2657.63	5742.5
2656.13	5678
2654.62	5687
2653.11	5675
2651.6	5684.5
2650.09	5719
2648.58	5709
2647.08	5651.5
2645.57	5718
2644.06	5682
2642.55	5662.5
2641.04	5629
2639.52	5672
2638.01	5616.5
2636.5	5577
2634.99	5595.5
2633.48	5576.5
2631.96	5601
2630.45	5543.5
2628.94	5595.5
2627.42	5548.5
2625.91	5506
2624.39	5561.5
2622.88	5550.5
2621.36	5489
2619.85	5486.5
2618.33	5495
2616.81	5501
2615.3	5530
2613.78	5462
2612.26	5477
2610.74	5422
2609.22	5443.5
2607.7	5428.5
2606.18	5453
2604.66	5396.5
2603.14	5321.5
2601.62	5339
2600.1	5275
2598.58	5320.5
2597.06	5285
2595.54	5272.5
2594.01	5315.5
2592.49	5284
2590.97	5251.5
2589.44	5289
2587.92	5299.5
2586.39	5306.5
2584.87	5242
2583.34	5228
2581.82	5287.5
2580.29	5239
2578.76	5267.5
2577.24	5253.5
2575.71	5237.5
2574.18	5251.5
2572.65	5243
2571.13	5246.5
2569.6	5241.5
2568.07	5244.5
2566.54	5247.5
2565.01	5198.5
2563.48	5141
2561.95	5170.5
2560.42	5170
2558.88	5171.5
2557.35	5175
2555.82	5143.5
2554.29	5140
2552.75	5087
2551.22	5119.5
2549.69	5068.5
2548.15	5085.5
2546.62	5051
2545.08	5050
2543.55	5061
2542.01	5065.5
2540.47	5020
2538.94	4998.5
2537.4	4949
2535.86	4954.5
2534.33	4946.5
2532.79	4899.5
2531.25	4911
2529.71	4893
2528.17	4908.5
2526.63	4877
2525.09	4884.5
2523.55	4845.5
2522.01	4803.5
2520.47	4831
2518.92	4803.5
2517.38	4787.5
2515.84	4756.5
2514.3	4731
2512.75	4717
2511.21	4736.5
2509.67	4729.5
2508.12	4769.5
2506.58	4716.5
2505.03	4696
2503.49	4669.5
2501.94	4640
2500.39	4623
2498.85	4639.5
2497.3	4567
2495.75	4531
2494.2	4563
2492.65	4521.5
2491.11	4515
2489.56	4530.5
2488.01	4550
2486.46	4497
2484.91	4483
2483.36	4448
2481.8	4377
2480.25	4381
2478.7	4434.5
2477.15	4395
2475.6	4420.5
2474.04	4394
2472.49	4385
2470.93	4341.5
2469.38	4376.5
2467.83	4361
2466.27	4344
2464.71	4308.5
2463.16	4308
2461.6	4258
2460.05	4238
2458.49	4235
2456.93	4202.5
2455.37	4199.5
2453.81	4221
2452.26	4217
2450.7	4147.5
2449.14	4133.5
2447.58	4146
2446.02	4079.5
2444.46	4016.5
2442.9	4066.5
2441.33	4046
2439.77	4053.5
2438.21	4085
2436.65	4021.5
2435.08	4035
2433.52	4021
2431.96	3983
2430.39	4001.5
2428.83	3986.5
2427.26	3954.5
2425.7	3927.5
2424.13	3989
2422.56	3945.5
2421	3921
2419.43	3904.5
2417.86	3888
2416.3	3940
2414.73	3885
2413.16	3893
2411.59	3856
2410.02	3864
2408.45	3812.5
2406.88	3843
2405.31	3830.5
2403.74	3857.5
2402.17	3817.5
2400.6	3843
2399.02	3864
2397.45	3819.5
2395.88	3808.5
2394.3	3823
2392.73	3772
2391.16	3800
2389.58	3785.5
2388.01	3794
2386.43	3803.5
2384.86	3760.5
2383.28	3780.5
2381.7	3772
2380.13	3776.5
2378.55	3746
2376.97	3758
2375.39	3726.5
2373.81	3748
2372.23	3718
2370.65	3731
2369.07	3699
2367.49	3706
2365.91	3659
2364.33	3737
2362.75	3679
2361.17	3671.5
2359.59	3676.5
2358.01	3683.5
2356.42	3654.5
2354.84	3651.5
2353.25	3602.5
2351.67	3579
2350.09	3609
2348.5	3597.5
2346.92	3588
2345.33	3581.5
2343.74	3576.5
2342.16	3556
2340.57	3587.5
2338.98	3529
2337.39	3506
2335.81	3508
2334.22	3515
2332.63	3509.5
2331.04	3506
2329.45	3468.5
2327.86	3508.5
2326.27	3507
2324.68	3503.5
2323.09	3487.5
2321.49	3465
2319.9	3387.5
2318.31	3371
2316.72	3362
2315.12	3383.5
2313.53	3346.5
2311.93	3355
2310.34	3313
2308.74	3336.5
2307.15	3376
2305.55	3335
2303.96	3296
2302.36	3242.5
2300.76	3240.5
2299.17	3235
2297.57	3239
2295.97	3229
2294.37	3284
2292.77	3229.5
2291.17	3235.5
2289.57	3209.5
2287.97	3204
2286.37	3226
2284.77	3227
2283.17	3198
2281.57	3179
2279.96	3205.5
2278.36	3176
2276.76	3115.5
2275.15	3179
2273.55	3171.5
2271.95	3168
2270.34	3135.5
2268.74	3147.5
2267.13	3095.5
2265.52	3082
2263.92	3055
2262.31	3056
2260.7	3007.5
2259.1	3017
2257.49	3036
2255.88	3065
2254.27	3041
2252.66	2984
2251.05	3005
2249.44	2994
2247.83	3014.5
2246.22	3013
2244.61	3028.5
2243	3007
2241.39	2975.5
2239.77	2962
2238.16	2965
2236.55	2941.5
2234.93	2926.5
2233.32	2926.5
2231.7	2893
2230.09	2907.5
2228.47	2859
2226.86	2849
2225.24	2834.5
2223.63	2827
2222.01	2793.5
2220.39	2805
2218.77	2798.5
2217.16	2812
2215.54	2791.5
2213.92	2800
2212.3	2765
2210.68	2754.5
2209.06	2759.5
2207.44	2747
2205.82	2729.5
2204.19	2705.5
2202.57	2705.5
2200.95	2711
2199.33	2697.5
2197.7	2738
2196.08	2711
2194.46	2718
2192.83	2693.5
2191.21	2680.5
2189.58	2653
2187.96	2669.5
2186.33	2664
2184.7	2657.5
2183.08	2659.5
2181.45	2655.5
2179.82	2603
2178.19	2603
2176.57	2614
2174.94	2584.5
2173.31	2600
2171.68	2571.5
2170.05	2581.5
2168.42	2583.5
2166.79	2543.5
2165.16	2527
2163.52	2561
2161.89	2544
2160.26	2545.5
2158.63	2534
2156.99	2524.5
2155.36	2530
2153.73	2509
2152.09	2465.5
2150.46	2452.5
2148.82	2470.5
2147.18	2432.5
2145.55	2448
2143.91	2441
2142.27	2436.5
2140.64	2454
2139	2408.5
2137.36	2406.5
2135.72	2387.5
2134.08	2376
2132.44	2356.5
2130.8	2312
2129.16	2337.5
2127.52	2286
2125.88	2284
2124.24	2284
2122.6	2296.5
2120.95	2287.5
2119.31	2251
2117.67	2247
2116.02	2251
2114.38	2237.5
2112.74	2243.5
2111.09	2216
2109.45	2210
2107.8	2191
2106.15	2201
2104.51	2186.5
2102.86	2208.5
2101.21	2152
2099.56	2196
2097.92	2176
2096.27	2165
2094.62	2125.5
2092.97	2107.5
2091.32	2129
2089.67	2180
2088.02	2143
2086.37	2164
2084.72	2121.5
2083.06	2153.5
2081.41	2102.5
2079.76	2120.5
2078.1	2107
2076.45	2097
2074.8	2128.5
2073.14	2120.5
2071.49	2081
2069.83	2097
2068.18	2073
2066.52	2072
2064.86	2096
2063.21	2098
2061.55	2042
2059.89	2050.5
2058.23	2048
2056.57	2043
2054.92	2030.5
2053.26	2040
2051.6	2051
2049.94	2020.5
2048.27	2012.5
2046.61	1991
2044.95	2028
2043.29	2008.5
2041.63	1950
2039.97	1973
2038.3	1984.5
2036.64	1931
2034.97	1954.5
2033.31	1948
2031.64	1909.5
2029.98	1922.5
2028.31	1959.5
2026.65	1923
2024.98	1917
2023.31	1945
2021.65	1855.5
2019.98	1882.5
2018.31	1857
2016.64	1833.5
2014.97	1853
2013.3	1826.5
2011.63	1824.5
2009.96	1833
2008.29	1843
2006.62	1831.5
2004.95	1808.5
2003.28	1808.5
2001.6	1794.5
1999.93	1793.5
1998.26	1768
1996.58	1771
1994.91	1751.5
1993.24	1768.5
1991.56	1785.5
1989.89	1782
1988.21	1748
1986.53	1796.5
1984.86	1756.5
1983.18	1736
1981.5	1721.5
1979.82	1711
1978.15	1672
1976.47	1684
1974.79	1687
1973.11	1683
1971.43	1713
1969.75	1677.5
1968.07	1677
1966.38	1679.5
1964.7	1664
1963.02	1617
1961.34	1645.5
1959.66	1630
1957.97	1616
1956.29	1620.5
1954.6	1644.5
1952.92	1610.5
1951.23	1629
1949.55	1636
1947.86	1617
1946.18	1592.5
1944.49	1611.5
1942.8	1564
1941.11	1551.5
1939.43	1561
1937.74	1559.5
1936.05	1572
1934.36	1599
1932.67	1566.5
1930.98	1594.5
1929.29	1538
1927.6	1544.5
1925.91	1550.5
1924.21	1518
1922.52	1505
1920.83	1518.5
1919.14	1499.5
1917.44	1468
1915.75	1476.5
1914.05	1477.5
1912.36	1470
1910.66	1464.5
1908.97	1509
1907.27	1458
1905.58	1460.5
1903.88	1461
1902.18	1436.5
1900.48	1401.5
1898.79	1391.5
1897.09	1421
1895.39	1407.5
1893.69	1394.5
1891.99	1379
1890.29	1416
1888.59	1401.5
1886.89	1385
1885.18	1366
1883.48	1384
1881.78	1357.5
1880.08	1324
1878.37	1319
1876.67	1304
1874.96	1291
1873.26	1362.5
1871.55	1322.5
1869.85	1321
1868.14	1330
1866.44	1304.5
1864.73	1274
1863.02	1300
1861.32	1300
1859.61	1268.5
1857.9	1287.5
1856.19	1296.5
1854.48	1282
1852.77	1268.5
1851.06	1290.5
1849.35	1250
1847.64	1256
1845.93	1248
1844.21	1248.5
1842.5	1242.5
1840.79	1208.5
1839.08	1235.5
1837.36	1231
1835.65	1252.5
1833.93	1247
1832.22	1250.5
1830.5	1224
1828.79	1221.5
1827.07	1209.5
1825.36	1176
1823.64	1206.5
1821.92	1150.5
1820.2	1148.5
1818.48	1182.5
1816.77	1135.5
1815.05	1182
1813.33	1192.5
1811.61	1193
1809.89	1161.5
1808.16	1166
1806.44	1129
1804.72	1119
1803	1124
1801.28	1111.5
1799.55	1113
1797.83	1139
1796.11	1149
1794.38	1116
1792.66	1126
1790.93	1114.5
1789.21	1109.5
1787.48	1086
1785.75	1070.5
1784.03	1106
1782.3	1068
1780.57	1065
1778.84	1093
1777.11	1089
1775.38	1100.5
1773.66	1079
1771.93	1092
1770.19	1082
1768.46	1104.5
1766.73	1063
1765	1088
1763.27	1084.5
1761.54	1072
1759.8	1102.5
1758.07	1099
1756.34	1084.5
1754.6	1098
1752.87	1134.5
1751.13	1114.5
1749.4	1138.5
1747.66	1132
1745.92	1099
1744.19	1103.5
1742.45	1110.5
1740.71	1097.5
1738.97	1064.5
1737.23	1093.5
1735.49	1072.5
1733.75	1059
1732.01	1072
1730.27	1062
1728.53	1073
1726.79	1037
1725.05	999.5
1723.31	1040.5
1721.57	989
1719.82	986.5
1718.08	995
1716.34	1032.5
1714.59	1008
1712.85	1026.5
1711.1	1007
1709.36	994
1707.61	984.5
1705.86	993.5
1704.12	968.5
1702.37	969.5
1700.62	971
1698.87	985
1697.12	975.5
1695.37	988
1693.62	991
1691.87	965.5
1690.12	977
1688.37	959
1686.62	951
1684.87	943.5
1683.12	928
1681.36	915.5
1679.61	937
1677.86	941.5
1676.1	973
1674.35	970
1672.59	968.5
1670.84	996.5
1669.08	985
1667.33	1023.5
1665.57	1043.5
1663.81	1079
1662.06	1110.5
1660.3	1166
1658.54	1136
1656.78	1193.5
1655.02	1150
1653.26	1149
1651.5	1113
1649.74	1076.5
1647.98	997.5
1646.22	988
1644.46	970.5
1642.7	966
1640.93	934
1639.17	934
1637.41	940
1635.64	919.5
1633.88	912.5
1632.11	918
1630.35	918
1628.58	906
1626.81	860
1625.05	871
1623.28	883
1621.51	851
1619.75	870
1617.98	854.5
1616.21	874
1614.44	868.5
1612.67	868
1610.9	848
1609.13	886.5
1607.36	837
1605.58	827
1603.81	820.5
1602.04	826.5
1600.27	850.5
1598.49	828.5
1596.72	843.5
1594.95	841.5
1593.17	845
1591.4	860
1589.62	824
1587.84	848
1586.07	837.5
1584.29	821.5
1582.51	794
1580.74	800
1578.96	797.5
1577.18	798
1575.4	812.5
1573.62	828
1571.84	811.5
1570.06	828
1568.28	846
1566.5	795
1564.72	758.5
1562.93	793.5
1561.15	786
1559.37	783
1557.58	785.5
1555.8	815
1554.02	797.5
1552.23	815.5
1550.45	779
1548.66	807
1546.87	784
1545.09	790
1543.3	766
1541.51	755.5
1539.72	750
1537.94	759
1536.15	740.5
1534.36	765.5
1532.57	759.5
1530.78	774
1528.99	750
1527.2	776
1525.4	755.5
1523.61	733.5
1521.82	734
1520.03	737.5
1518.23	745
1516.44	743.5
1514.65	741.5
1512.85	760
1511.06	768.5
1509.26	778
1507.46	779
1505.67	766.5
1503.87	755
1502.07	764
1500.28	757
1498.48	765
1496.68	759.5
1494.88	768.5
1493.08	772
1491.28	790
1489.48	809.5
1487.68	792.5
1485.88	819.5
1484.08	807.5
1482.27	820.5
1480.47	815
1478.67	835
1476.86	827.5
1475.06	877
1473.25	892.5
1471.45	918
1469.64	975
1467.84	986
1466.03	1023
1464.23	1062
1462.42	1087
1460.61	1109.5
1458.8	1140
1456.99	1124.5
1455.18	1154.5
1453.37	1197
1451.56	1235
1449.75	1243
1447.94	1258
1446.13	1342
1444.32	1330
1442.51	1330.5
1440.7	1322.5
1438.88	1297
1437.07	1262
1435.26	1169
1433.44	1100
1431.63	1033
1429.81	986.5
1427.99	926.5
1426.18	922
1424.36	874
1422.54	882
1420.73	845.5
1418.91	815
1417.09	816
1415.27	806
1413.45	771
1411.63	768.5
1409.81	773
1407.99	765
1406.17	765
1404.35	767
1402.53	761
1400.7	757.5
1398.88	727
1397.06	721.5
1395.23	730
1393.41	708.5
1391.58	706
1389.76	703.5
1387.93	720
1386.11	736.5
1384.28	753.5
1382.45	730.5
1380.62	721
1378.8	732
1376.97	721.5
1375.14	734
1373.31	696.5
1371.48	721
1369.65	734
1367.82	755.5
1365.99	721
1364.16	739.5
1362.32	715
1360.49	733.5
1358.66	743.5
1356.82	714
1354.99	691.5
1353.16	720
1351.32	720
1349.48	728.5
1347.65	730.5
1345.81	735.5
1343.98	720.5
1342.14	737.5
1340.3	742.5
1338.46	741
1336.62	725.5
1334.79	747
1332.95	745
1331.11	750.5
1329.27	769.5
1327.42	776.5
1325.58	832.5
1323.74	830
1321.9	837
1320.06	866.5
1318.21	903.5
1316.37	881.5
1314.53	920.5
1312.68	941.5
1310.84	981.5
1308.99	1031.5
1307.15	1037.5
1305.3	1078.5
1303.45	1089.5
1301.61	1088.5
1299.76	1098.5
1297.91	1074.5
1296.06	1021.5
1294.21	973
1292.36	945.5
1290.51	886
1288.66	886
1286.81	868
1284.96	865
1283.11	888
1281.26	887
1279.4	891.5
1277.55	888.5
1275.7	915.5
1273.84	895
1271.99	913
1270.13	913.5
1268.28	910.5
1266.42	905
1264.56	893.5
1262.71	893.5
1260.85	915.5
1258.99	876.5
1257.13	850
1255.27	832.5
1253.41	835.5
1251.56	823.5
1249.7	813.5
1247.83	777
1245.97	773.5
1244.11	745.5
1242.25	755
1240.39	758
1238.52	749.5
1236.66	740.5
1234.8	734
1232.93	737.5
1231.07	733.5
1229.2	722
1227.34	695.5
1225.47	707.5
1223.6	674
1221.74	681.5
1219.87	685
1218	691.5
1216.13	709.5
1214.26	700.5
1212.39	692.5
1210.53	676
1208.65	681
1206.78	672.5
1204.91	678
1203.04	658
1201.17	668.5
1199.3	678.5
1197.42	675
1195.55	683.5
1193.68	655.5
1191.8	699
1189.93	671
1188.05	659
1186.17	659.5
1184.3	675
1182.42	654
1180.54	662.5
1178.67	663
1176.79	659.5
1174.91	683.5
1173.03	672.5
1171.15	676.5
1169.27	678
1167.39	672.5
1165.51	673
1163.63	658.5
1161.75	668
1159.86	640.5
1157.98	658
1156.1	683.5
1154.21	674
1152.33	685.5
1150.44	691
1148.56	710
1146.67	705.5
1144.79	691
1142.9	687
1141.01	693
1139.12	669
1137.24	682
1135.35	727.5
1133.46	744.5
1131.57	777
1129.68	776.5
1127.79	782
1125.9	816
1124.01	805
1122.12	776
1120.22	781.5
1118.33	743
1116.44	773.5
1114.54	768
1112.65	765
1110.75	767.5
1108.86	783
1106.96	818.5
1105.07	814
1103.17	809
1101.27	808
1099.38	848
1097.48	848.5
1095.58	888
1093.68	869.5
1091.78	903.5
1089.88	917
1087.98	925.5
1086.08	970.5
1084.18	971
1082.28	937
1080.38	951.5
1078.47	943.5
1076.57	929
1074.67	914
1072.76	905.5
1070.86	896.5
1068.95	924
1067.05	943.5
1065.14	963
1063.24	937
1061.33	910.5
1059.42	916
1057.51	859.5
1055.6	837
1053.7	813
1051.79	832
1049.88	795.5
1047.97	800
1046.06	820
1044.14	825.5
1042.23	829
1040.32	833
1038.41	809.5
1036.5	820
1034.58	783
1032.67	788.5
1030.75	809.5
1028.84	818
1026.92	783.5
1025.01	798.5
1023.09	791.5
1021.17	807
1019.26	844.5
1017.34	813
1015.42	831.5
1013.5	818.5
1011.58	784.5
1009.66	802.5
1007.74	805
1005.82	808
1003.9	803.5
1001.98	807
1000.06	819.5
998.134	829
996.212	845
994.288	828.5
992.364	831.5
990.44	838
988.515	849
986.589	862
984.663	876.5
982.737	885.5
980.81	912.5
978.883	937
976.955	957
975.027	972
973.098	1001
971.169	980.5
969.239	973
967.308	982.5
965.378	953.5
963.447	958
961.516	969
959.583	991
957.65	1002.5
955.718	993
953.784	1014
951.85	1021
949.916	1012.5
947.981	1048
946.045	1014.5
944.109	1036
942.173	1035.5
940.236	1025.5
938.298	1024
936.36	1032
934.422	988.5
932.484	1006.5
930.544	987.5
928.604	950.5
926.664	919.5
924.724	916
922.782	902.5
920.84	915
918.898	899
916.955	921
915.012	921.5
913.068	899.5
911.124	930
909.18	908.5
907.235	937
905.289	922
903.343	947.5
901.397	943
899.45	905.5
897.502	921.5
895.554	949.5
893.605	973.5
891.657	1003.5
889.707	1022.5
887.758	1002.5
885.807	995.5
883.856	1013.5
881.905	1004.5
879.953	992
878.001	1010.5
876.048	1036
874.094	1013.5
872.14	1019.5
870.186	1028
868.232	1035.5
866.276	1031
864.321	1004.5
862.365	1032
860.408	1037
858.451	1019
856.493	1013
854.535	989.5
852.576	1004.5
850.617	1012
848.658	1003
846.698	1010
844.737	1035
842.776	1018.5
840.814	990.5
838.852	999.5
836.89	959
834.927	942
832.963	949
830.999	928.5
829.035	926
827.07	908
825.105	904
823.139	897.5
821.172	895.5
819.206	896.5
817.238	882
815.27	872.5
813.301	848.5
811.333	852.5
809.363	825.5
807.394	840
805.424	821
803.453	803.5
801.482	822.5
799.509	810.5
797.538	812
795.565	807.5
793.592	790
791.618	797.5
789.643	789.5
787.669	796
785.693	772.5
783.718	769
781.742	809
779.765	775
777.788	802
775.811	803
773.832	845.5
771.853	823
769.875	808.5
767.895	766.5
765.915	786.5
763.934	764.5
761.953	794.5
759.972	776
757.99	786.5
756.007	814
754.024	790
752.041	793.5
750.056	787
748.072	798
746.087	817.5
744.102	788
742.116	792
740.13	792.5
738.143	803.5
736.155	820.5
734.167	807
732.179	834
730.19	803.5
728.2	822
726.21	841
724.22	826
722.229	809.5
720.237	820.5
718.246	828.5
716.253	794
714.26	801
712.267	818
710.273	785.5
708.279	808
706.284	809
704.289	824
702.293	826
700.296	819
698.3	785
696.303	809.5
694.305	776.5
692.307	817.5
690.307	800
688.308	792
686.309	824.5
684.308	821
682.308	833
680.306	845
678.304	825.5
676.302	823
674.3	833
672.296	827
670.293	807
668.289	794
666.284	821.5
664.278	827
662.273	837
660.266	858
658.26	851.5
656.252	842.5
654.244	860
652.237	832.5
650.227	835.5
648.218	821
646.209	817.5
644.198	839
642.188	862
640.177	824
638.165	870
636.153	880.5
634.14	867.5
632.128	866.5
630.113	890
628.099	871.5
626.085	863
624.07	873.5
622.054	875
620.038	882
618.021	903.5
616.004	895
613.986	917
611.968	905.5
609.949	922
607.93	905.5
605.911	905
603.891	922.5
601.87	910.5
599.848	903.5
597.827	884
595.805	887.5
593.782	904
591.759	911
589.735	917.5
587.711	917.5
585.687	912.5
583.661	918.5
581.636	909.5
579.609	899.5
577.583	912
575.555	891.5
573.527	907.5
571.5	908
569.471	916
567.441	932
565.412	930.5
563.382	938
561.351	943
559.32	931.5
557.289	941.5
555.257	943
553.223	974.5
551.19	972.5
549.157	989.5
547.122	1013.5
545.088	1019.5
543.053	1102
541.017	1123.5
538.981	1164.5
536.943	1228
534.907	1371.5
532.869	1604.5
530.831	1957
528.792	2640.5
526.752	3766.5
524.713	5210.5
522.673	6329
520.632	6176
518.591	5145.5
516.549	3853.5
514.507	2833
512.464	2066.5
510.42	1637.5
508.377	1374
506.332	1252.5
504.288	1157.5
502.242	1122
500.196	1097.5
498.15	1092
496.104	1086
494.056	1060
492.008	1065.5
489.96	1036.5
487.911	1040.5
485.862	1009
483.812	1040.5
481.761	1021
479.71	1031.5
477.659	1038
475.607	1040
473.555	1020.5
471.502	1013.5
469.448	1012.5
467.395	1026.5
465.34	996
463.285	1001
461.23	1011
459.174	1015
457.118	1004.5
455.061	1023.5
453.003	1054
450.945	1042
448.887	1061
446.828	1052
444.768	1062
442.708	1067
440.647	1071.5
438.587	1062.5
436.525	1062.5
434.463	1066.5
432.4	1062.5
430.337	1082.5
428.274	1084
426.21	1096
424.145	1107.5
422.079	1116
420.014	1083.5
417.948	1135
415.882	1089.5
413.814	1099
411.746	1082.5
409.679	1111
407.609	1096.5
405.54	1115
403.47	1097
401.401	1117
399.329	1139
397.258	1120.5
395.187	1114
393.114	1112
391.041	1099.5
388.968	1095
386.895	1106
384.82	1120
382.745	1128.5
380.67	1153
378.594	1133.5
376.517	1147
374.44	1152
372.363	1136
370.286	1132.5
368.207	1148
366.128	1149
364.049	1139
361.969	1146
359.888	1134
357.807	1161.5
355.725	1174.5
353.643	1211.5
351.561	1190.5
349.477	1201.5
347.394	1174
345.31	1201
343.226	1178.5
341.141	1179.5
339.055	1206
336.968	1201.5
334.882	1214.5
332.795	1220
330.707	1242
328.618	1259.5
326.53	1255.5
324.44	1264
322.351	1266.5
320.26	1279.5
318.17	1292
316.078	1298.5
313.987	1332.5
311.895	1377
309.802	1403
307.708	1439.5
305.614	1459.5
303.52	1456.5
301.425	1438
299.329	1420
297.233	1376.5
295.137	1389
293.039	1362.5
290.942	1353
288.844	1336
286.745	1354.5
284.647	1373
282.546	1336
280.446	1394
278.346	1374.5
276.245	1359.5
274.143	1376
272.041	1347.5
269.939	1364.5
267.835	1378.5
265.731	1358
263.627	1380.5
261.522	1379.5
259.417	1370.5
257.311	1401
255.204	1412
253.098	1382.5
250.99	1392
248.882	1372
246.774	1398
244.664	1394.5
242.555	1400
240.445	1438
238.334	1463.5
236.223	1479
234.112	1442
232	1489
229.888	1501.5
227.775	1514
225.661	1501
223.546	1511.5
221.431	1517
219.316	1500.5
217.201	1505.5
215.084	1506.5
212.967	1525.5
210.85	1536.5
208.732	1533
206.614	1539
204.495	1501.5
202.375	1531.5
200.256	1539
198.135	1517.5
196.014	1535
193.893	1509
191.771	1523
189.648	1527.5
187.525	1547.5
185.401	1536
183.277	1524.5
181.152	1567
179.027	1582.5
176.901	1530.5
174.775	1563.5
172.648	1529.5
170.521	1529.5
168.393	1548.5
166.265	1580
164.136	1595.5
162.007	1619.5
159.876	1640.5
157.746	1679
155.615	1680
153.483	1691.5
151.351	1691
149.219	1773.5
147.086	1729.5
144.952	1796
142.818	1837
140.684	1848
138.548	1901.5
136.413	1960
134.276	1983
132.139	2034
130.002	2081
127.864	2085.5
125.725	2169.5
123.587	2189
121.447	2264.5
119.307	2303
117.166	2370.5
115.026	2432.5
112.885	2519.5
110.743	2575.5
108.6	2604.5
106.456	2623.5
104.313	2571.5
102.169	2525
100.023	2394
97.8789	2209.5
95.7328	2015.5
93.5869	1772
91.4392	1483
89.2919	1221
87.1447	951.5
84.9959	751.5
