3528.51	280.5
3527.23	303.5
3525.95	323.5
3524.67	317.5
3523.39	310
3522.1	316.5
3520.82	314
3519.54	311.5
3518.26	300.5
3516.97	315
3515.69	308
3514.4	326
3513.12	325
3511.84	339
3510.55	346.5
3509.26	337
3507.98	341
3506.69	322
3505.41	321.5
3504.12	333
3502.83	337
3501.54	332.5
3500.26	351
3498.97	343
3497.68	361.5
3496.39	391.5
3495.1	361.5
3493.81	368
3492.52	376
3491.23	363.5
3489.94	387.5
3488.65	373
3487.36	382.5
3486.07	399
3484.78	420
3483.49	418.5
3482.19	413
3480.9	419
3479.61	435
3478.31	422
3477.02	434
3475.73	436.5
3474.43	429
3473.14	433.5
3471.84	453
3470.54	467.5
3469.25	471.5
3467.95	466.5
3466.66	461
3465.36	488
3464.06	473
3462.76	470
3461.46	458.5
3460.17	458
3458.87	457.5
3457.57	473.5
3456.27	474.5
3454.97	516
3453.67	504
3452.37	499.5
3451.07	502.5
3449.77	509.5
3448.47	513
3447.16	524
3445.86	530
3444.56	525
3443.26	545
3441.95	544.5
3440.65	554
3439.35	564.5
3438.04	584.5
3436.74	598.5
3435.43	625
3434.13	631.5
3432.82	612
3431.52	623
3430.21	639.5
3428.9	646.5
3427.6	638
3426.29	673
3424.98	683.5
3423.67	691
3422.36	692
3421.06	710.5
3419.75	729
3418.44	720.5
3417.13	723.5
3415.82	745.5
3414.51	757.5
3413.2	751.5
3411.88	749
3410.57	763.5
3409.26	778
3407.95	795
3406.64	780
3405.32	799
3404.01	810
3402.7	801
3401.38	821.5
3400.07	815.5
3398.75	812
3397.44	830.5
3396.12	806
3394.81	844.5
3393.49	831
3392.18	851
3390.86	871
3389.54	854
3388.23	890.5
3386.91	894
3385.59	896.5
3384.27	873.5
3382.95	884
3381.63	892.5
3380.31	918.5
3378.99	919
3377.67	946
3376.35	922
3375.03	964.5
3373.71	957
3372.39	978
3371.07	977.5
3369.75	949.5
3368.42	967
3367.1	995
3365.78	1002
3364.45	1021.5
3363.13	1021.5
3361.81	1025
3360.48	1047.5
3359.16	1064.5
3357.83	1043
3356.51	1037.5
3355.18	1035
3353.85	1039.5
3352.53	1073.5
3351.2	1043.5
3349.87	1057.5
3348.54	1055
3347.22	1058
3345.89	1092
3344.56	1067
3343.23	1080.5
3341.9	1081
3340.57	1090
3339.24	1105
3337.91	1086.5
3336.58	1076
3335.25	1112
3333.92	1124.5
3332.58	1107
3331.25	1122
3329.92	1132
3328.59	1139.5
3327.25	1127.5
3325.92	1149.5
3324.58	1137.5
3323.25	1135
3321.92	1138
3320.58	1148.5
3319.25	1164
3317.91	1158.5
3316.57	1188
3315.24	1192.5
3313.9	1196
3312.56	1211
3311.23	1211.5
3309.89	1185.5
3308.55	1197.5
3307.21	1212.5
3305.87	1207.5
3304.53	1237.5
3303.19	1235.5
3301.85	1238
3300.51	1243.5
3299.17	1238.5
3297.83	1261.5
3296.49	1281.5
3295.15	1271.5
3293.81	1277
3292.46	1276.5
3291.12	1261.5
3289.78	1268
3288.43	1289
3287.09	1285
3285.75	1311
3284.4	1323
3283.06	1302.5
3281.71	1304.5
3280.37	1326
3279.02	1309
3277.67	1298
3276.33	1318
3274.98	1310
3273.63	1369
3272.28	1359.5
3270.94	1395
3269.59	1417.5
3268.24	1402
3266.89	1425.5
3265.54	1422
3264.19	1424
3262.84	1456.5
3261.49	1499
3260.14	1509
3258.79	1543.5
3257.44	1567
3256.08	1619
3254.73	1630
3253.38	1671.5
3252.03	1684
3250.67	1708.5
3249.32	1772
3247.96	1802.5
3246.61	1856
3245.26	1906.5
3243.9	1914.5
3242.54	1998.5
3241.19	2042
3239.83	2071
3238.48	2150.5
3237.12	2207.5
3235.76	2272
3234.41	2354.5
3233.05	2341
3231.69	2399.5
3230.33	2506
3228.97	2509.5
3227.61	2531.5
3226.25	2639.5
3224.89	2618
3223.53	2721.5
3222.17	2727.5
3220.81	2759
3219.45	2853
3218.09	2844
3216.72	2897
3215.36	2885.5
3214	2900
3212.63	2940.5
3211.27	2998.5
3209.91	3028.5
3208.54	3020.5
3207.18	3077
3205.81	3066.5
3204.45	3125.5
3203.08	3108.5
3201.71	3099
3200.35	3135.5
3198.98	3121
3197.61	3189.5
3196.25	3194.5
3194.88	3193
3193.51	3210
3192.14	3210.5
3190.77	3262
3189.4	3239
3188.03	3250
3186.66	3249
3185.29	3284
3183.92	3262
3182.55	3330
3181.18	3318
3179.81	3357
3178.44	3365
3177.06	3394
3175.69	3442.5
3174.32	3453.5
3172.94	3521
3171.57	3529.5
3170.2	3516
3168.82	3502
3167.45	3563.5
3166.07	3575.5
3164.69	3647.5
3163.32	3600
3161.94	3673
3160.56	3723
3159.19	3750.5
3157.81	3764
3156.43	3813.5
3155.05	3794
3153.67	3850.5
3152.3	3865
3150.92	3903
3149.54	3934
3148.16	4001.5
3146.78	4031
3145.4	4006
3144.01	4064.5
3142.63	4151.5
3141.25	4151.5
3139.87	4142
3138.49	4137.5
3137.1	4190.5
3135.72	4233
3134.34	4241
3132.95	4254.5
3131.57	4283.5
3130.18	4287
3128.8	4360.5
3127.41	4409
3126.03	4440
3124.64	4452
3123.25	4483
3121.87	4473.5
3120.48	4535.5
3119.09	4514
3117.7	4561
3116.32	4559
3114.93	4648.5
3113.54	4623
3112.15	4688.5
3110.76	4658.5
3109.37	4706.5
3107.98	4674.5
3106.59	4712.5
3105.2	4732
3103.8	4700.5
3102.41	4793
3101.02	4799.5
3099.63	4820.5
3098.23	4854
3096.84	4869.5
3095.45	4881
3094.05	4912
3092.66	4914.5
3091.26	4921.5
3089.87	4967.5
3088.47	4960.5
3087.08	4984
3085.68	5002.5
3084.28	4967
3082.89	4997
3081.49	5076
3080.09	5074
3078.69	5073.5
3077.3	5073
3075.9	5081
3074.5	5088.5
3073.1	5037.5
3071.7	5140.5
3070.3	5136.5
3068.9	5190.5
3067.5	5166
3066.09	5174
3064.69	5163
3063.29	5248.5
3061.89	5264.5
3060.48	5233
3059.08	5214
3057.68	5233
3056.27	5234
3054.87	5269
3053.46	5289
3052.06	5276.5
3050.65	5310.5
3049.25	5343.5
3047.84	5402.5
3046.44	5353
3045.03	5371.5
3043.62	5479
3042.21	5418.5
3040.81	5374.5
3039.4	5431
3037.99	5411.5
3036.58	5436
3035.17	5459
3033.76	5434
3032.35	5530
3030.94	5519
3029.53	5515
3028.12	5581.5
3026.71	5538
3025.29	5625.5
3023.88	5561.5
3022.47	5591
3021.06	5583.5
3019.64	5646
3018.23	5671
3016.82	5715.5
3015.4	5719.5
3013.99	5619.5
3012.57	5671.5
3011.15	5704.5
3009.74	5696
3008.32	5728.5
3006.91	5674
3005.49	5724
3004.07	5736
3002.65	5735
3001.24	5773.5
2999.82	5864.5
2998.4	5875
2996.98	5822
2995.56	5882
2994.14	5937.5
2992.72	5944.5
2991.3	5927
2989.88	5947.5
2988.46	5998
2987.03	6093
2985.61	6081.5
2984.19	6143
2982.77	6151
2981.34	6199.5
2979.92	6192.5
2978.49	6278
2977.07	6306
2975.65	6359
2974.22	6335.5
2972.79	6395.5
2971.37	6395
2969.94	6467.5
2968.52	6493.5
2967.09	6518
2965.66	6532.5
2964.23	6511
2962.81	6563
2961.38	6629
2959.95	6557.5
2958.52	6598
2957.09	6538.5
2955.66	6622
2954.23	6595
2952.8	6658
2951.37	6616
2949.94	6689.5
2948.5	6704
2947.07	6726.5
2945.64	6684.5
2944.21	6699
2942.77	6709
2941.34	6727
2939.91	6797.5
2938.47	6774
2937.04	6820
2935.6	6780.5
2934.17	6834.5
2932.73	6900.5
2931.29	6916
2929.86	6939
2928.42	6930
2926.98	6952.5
2925.55	6938
2924.11	6973.5
2922.67	6980.5
2921.23	7004.5
2919.79	6950.5
2918.35	7065
2916.91	7040.5
2915.47	7028
2914.03	6960.5
2912.59	7027.5
2911.15	7048.5
2909.71	7040.5
2908.26	7046
2906.82	7108.5
2905.38	7103.5
2903.94	7146
2902.49	7151
2901.05	7138.5
2899.6	7172
2898.16	7184.5
2896.71	7195.5
2895.27	7181
2893.82	7169.5
2892.38	7164.5
2890.93	7213.5
2889.48	7192
2888.03	7121
2886.59	7216
2885.14	7253.5
2883.69	7237.5
2882.24	7236
2880.79	7315.5
2879.34	7298.5
2877.89	7291.5
2876.44	7309
2874.99	7300
2873.54	7212
2872.09	7338.5
2870.64	7287.5
2869.18	7327.5
2867.73	7336
2866.28	7351
2864.83	7251.5
2863.37	7314
2861.92	7283.5
2860.46	7321.5
2859.01	7331
2857.55	7293.5
2856.1	7359
2854.64	7354.5
2853.19	7359
2851.73	7399.5
2850.27	7402
2848.81	7410.5
2847.36	7406
2845.9	7331.5
2844.44	7362.5
2842.98	7269
2841.52	7301.5
2840.06	7195.5
2838.6	7218
2837.14	7220.5
2835.68	7257
2834.22	7241
2832.76	7225.5
2831.3	7180.5
2829.83	7112
2828.37	7147.5
2826.91	7135.5
2825.44	7130.5
2823.98	7078.5
2822.52	7152
2821.05	7092.5
2819.59	7048.5
2818.12	7086.5
2816.66	7076.5
2815.19	7067.5
2813.72	7102.5
2812.26	7061
2810.79	7032.5
2809.32	7015
2807.85	7006.5
2806.38	6976
2804.92	6984
2803.45	7005.5
2801.98	7013.5
2800.51	6988
2799.04	6969.5
2797.57	6948.5
2796.1	6949.5
2794.62	6959
2793.15	6909
2791.68	6929
2790.21	6934
2788.73	6960.5
2787.26	6875.5
2785.79	6954.5
2784.31	6925
2782.84	6923.5
2781.36	6935.5
2779.89	6965
2778.41	6989.5
2776.94	6993.5
2775.46	6992
2773.99	7018
2772.51	7070.5
2771.03	6996.5
2769.55	7070
2768.07	7111.5
2766.6	7125
2765.12	7089.5
2763.64	7084.5
2762.16	7096
2760.68	7058.5
2759.2	7031
2757.72	7019
2756.24	6980
2754.75	7068
2753.27	6997.5
2751.79	6995.5
2750.31	7005
2748.82	6984.5
2747.34	7003
2745.86	6968
2744.37	7011.5
2742.89	6994
2741.4	6977.5
2739.92	6948.5
2738.43	6960
2736.94	6956
2735.46	6995.5
2733.97	6984.5
2732.48	6975
2731	6998
2729.51	7013.5
2728.02	6990.5
2726.53	6982.5
2725.04	6955
2723.55	6980.5
2722.06	6972.5
2720.57	6962
2719.08	7034.5
2717.59	6974
2716.1	6991.5
2714.61	7001.5
2713.11	6993.5
2711.62	6968
2710.13	6963
2708.64	6951
2707.14	6907.5
2705.65	6932
2704.15	6859
2702.66	6845.5
2701.16	6912.5
2699.67	6809
2698.17	6840
2696.67	6814.5
2695.18	6848.5
2693.68	6835.5
2692.18	6828
2690.69	6773.5
2689.19	6764.5
2687.69	6762
2686.19	6730
2684.69	6729
2683.19	6731.5
2681.69	6721
2680.19	6730
2678.69	6668
2677.19	6651.5
2675.68	6642.5
2674.18	6642.5
2672.68	6633.5
2671.18	6654.5
2669.67	6625.5
2668.17	6644
2666.66	6595
2665.16	6651
2663.66	6609.5
2662.15	6635
2660.64	6600.5
2659.14	6641.5
2657.63	6619
2656.13	6541
2654.62	6564.5
2653.11	6528
2651.6	6572.5
2650.09	6538
2648.58	6499
2647.08	6583
2645.57	6476
2644.06	6524.5
2642.55	6512
2641.04	6474
2639.52	6474.5
2638.01	6470
2636.5	6433
2634.99	6384
2633.48	6401
2631.96	6421.5
2630.45	6389.5
2628.94	6374
2627.42	6365
2625.91	6339.5
2624.39	6355.5
2622.88	6382
2621.36	6366
2619.85	6309.5
2618.33	6359.5
2616.81	6276
2615.3	6291.5
2613.78	6277.5
2612.26	6278.5
2610.74	6207.5
2609.22	6209
2607.7	6272
2606.18	6220
2604.66	6167
2603.14	6147.5
2601.62	6118
2600.1	6109
2598.58	6073
2597.06	6065
2595.54	6093.5
2594.01	6132.5
2592.49	6084
2590.97	6016
2589.44	6067.5
2587.92	6073.5
2586.39	6068.5
2584.87	6043
2583.34	6028.5
2581.82	5990
2580.29	5967
2578.76	6035
2577.24	6046.5
2575.71	6002.5
2574.18	5978
2572.65	5953.5
2571.13	5984
2569.6	5931.5
2568.07	6000.5
2566.54	6002
2565.01	5930
2563.48	5929
2561.95	5898
2560.42	5904
2558.88	5888
2557.35	5902.5
2555.82	5886.5
2554.29	5833.5
2552.75	5849
2551.22	5837
2549.69	5814
2548.15	5799
2546.62	5783
2545.08	5802
2543.55	5773.5
2542.01	5762.5
2540.47	5789
2538.94	5730.5
2537.4	5756
2535.86	5704
2534.33	5628.5
2532.79	5597
2531.25	5619
2529.71	5593
2528.17	5578.5
2526.63	5610.5
2525.09	5565
2523.55	5482.5
2522.01	5570.5
2520.47	5575
2518.92	5488
2517.38	5516.5
2515.84	5475.5
2514.3	5431
2512.75	5479
2511.21	5408
2509.67	5426.5
2508.12	5399
2506.58	5412.5
2505.03	5391
2503.49	5372.5
2501.94	5430
2500.39	5388
2498.85	5357
2497.3	5322
2495.75	5274
2494.2	5271.5
2492.65	5216.5
2491.11	5214
2489.56	5219
2488.01	5186
2486.46	5191
2484.91	5183
2483.36	5153.5
2481.8	5122.5
2480.25	5119.5
2478.7	5063.5
2477.15	5082
2475.6	5081.5
2474.04	5102
2472.49	5047
2470.93	5045
2469.38	4991
2467.83	4962.5
2466.27	4992.5
2464.71	4924.5
2463.16	4923.5
2461.6	4912
2460.05	4894
2458.49	4857
2456.93	4853
2455.37	4833.5
2453.81	4811.5
2452.26	4803.5
2450.7	4759
2449.14	4791.5
2447.58	4725
2446.02	4728
2444.46	4685.5
2442.9	4651.5
2441.33	4695
2439.77	4592.5
2438.21	4652
2436.65	4652.5
2435.08	4649
2433.52	4668.5
2431.96	4581
2430.39	4574.5
2428.83	4586.5
2427.26	4505.5
2425.7	4567
2424.13	4577.5
2422.56	4526
2421	4463.5
2419.43	4500
2417.86	4499
2416.3	4489.5
2414.73	4450.5
2413.16	4455.5
2411.59	4473
2410.02	4416
2408.45	4433
2406.88	4456.5
2405.31	4443
2403.74	4432
2402.17	4387
2400.6	4433
2399.02	4408.5
2397.45	4394.5
2395.88	4415
2394.3	4391.5
2392.73	4336.5
2391.16	4394
2389.58	4365
2388.01	4338
2386.43	4325
2384.86	4352
2383.28	4301
2381.7	4369.5
2380.13	4329.5
2378.55	4353
2376.97	4369
2375.39	4285
2373.81	4306
2372.23	4270
2370.65	4275.5
2369.07	4267.5
2367.49	4260
2365.91	4245.5
2364.33	4262
2362.75	4224.5
2361.17	4215.5
2359.59	4163.5
2358.01	4172
2356.42	4158
2354.84	4133
2353.25	4091.5
2351.67	4162
2350.09	4114.5
2348.5	4095.5
2346.92	4117
2345.33	4138
2343.74	4105.5
2342.16	4082.5
2340.57	4050.5
2338.98	4011
2337.39	4014.5
2335.81	4051
2334.22	4074
2332.63	4055.5
2331.04	3989.5
2329.45	4009.5
2327.86	3992
2326.27	3989
2324.68	3983.5
2323.09	4012
2321.49	3982
2319.9	3936
2318.31	3914.5
2316.72	3883.5
2315.12	3849
2313.53	3848.5
2311.93	3833.5
2310.34	3871.5
2308.74	3827.5
2307.15	3834
2305.55	3840.5
2303.96	3807.5
2302.36	3788
2300.76	3799.5
2299.17	3747
2297.57	3753.5
2295.97	3744.5
2294.37	3732
2292.77	3755.5
2291.17	3734
2289.57	3756
2287.97	3685
2286.37	3670.5
2284.77	3676.5
2283.17	3661
2281.57	3671
2279.96	3662.5
2278.36	3666
2276.76	3651.5
2275.15	3654.5
2273.55	3655.5
2271.95	3617
2270.34	3596.5
2268.74	3614
2267.13	3561
2265.52	3525
2263.92	3523.5
2262.31	3496
2260.7	3480.5
2259.1	3520.5
2257.49	3480.5
2255.88	3501.5
2254.27	3459.5
2252.66	3438.5
2251.05	3472.5
2249.44	3482
2247.83	3450.5
2246.22	3435.5
2244.61	3425.5
2243	3440
2241.39	3393
2239.77	3430.5
2238.16	3411.5
2236.55	3350.5
2234.93	3389.5
2233.32	3379.5
2231.7	3340
2230.09	3346
2228.47	3290
2226.86	3312.5
2225.24	3284.5
2223.63	3276
2222.01	3240.5
2220.39	3254.5
2218.77	3272
2217.16	3248
2215.54	3216.5
2213.92	3209
2212.3	3229.5
2210.68	3213.5
2209.06	3212.5
2207.44	3163
2205.82	3160
2204.19	3140
2202.57	3124.5
2200.95	3111
2199.33	3130.5
2197.7	3136.5
2196.08	3130
2194.46	3121.5
2192.83	3099.5
2191.21	3078.5
2189.58	3072
2187.96	3059
2186.33	3035
2184.7	3070.5
2183.08	3049
2181.45	3015
2179.82	3027
2178.19	3044.5
2176.57	3025.5
2174.94	3037
2173.31	3006
2171.68	2970.5
2170.05	2971.5
2168.42	3005
2166.79	2996.5
2165.16	2934
2163.52	2934.5
2161.89	2911
2160.26	2909
2158.63	2935
2156.99	2902
2155.36	2888.5
2153.73	2898.5
2152.09	2838.5
2150.46	2856.5
2148.82	2835.5
2147.18	2803
2145.55	2863.5
2143.91	2821
2142.27	2798.5
2140.64	2843.5
2139	2781
2137.36	2808
2135.72	2801
2134.08	2751
2132.44	2698.5
2130.8	2708.5
2129.16	2713.5
2127.52	2660
2125.88	2658
2124.24	2644
2122.6	2675.5
2120.95	2643.5
2119.31	2620.5
2117.67	2596.5
2116.02	2593.5
2114.38	2572.5
2112.74	2565.5
2111.09	2562
2109.45	2541.5
2107.8	2547.5
2106.15	2530.5
2104.51	2540.5
2102.86	2559.5
2101.21	2562
2099.56	2510
2097.92	2530
2096.27	2493
2094.62	2478
2092.97	2453
2091.32	2488
2089.67	2456.5
2088.02	2462
2086.37	2484.5
2084.72	2478.5
2083.06	2494
2081.41	2486
2079.76	2454.5
2078.1	2432
2076.45	2427
2074.8	2443
2073.14	2446.5
2071.49	2406
2069.83	2431
2068.18	2433
2066.52	2410.5
2064.86	2427
2063.21	2403.5
2061.55	2382
2059.89	2382.5
2058.23	2356.5
2056.57	2342.5
2054.92	2324.5
2053.26	2373.5
2051.6	2344.5
2049.94	2327
2048.27	2318.5
2046.61	2363
2044.95	2320.5
2043.29	2328.5
2041.63	2304.5
2039.97	2279
2038.3	2305
2036.64	2254
2034.97	2235
2033.31	2249.5
2031.64	2281
2029.98	2218
2028.31	2260
2026.65	2230.5
2024.98	2184
2023.31	2211
2021.65	2185
2019.98	2160
2018.31	2134
2016.64	2139
2014.97	2126.5
2013.3	2147.5
2011.63	2094
2009.96	2126.5
2008.29	2110.5
2006.62	2145.5
2004.95	2073.5
2003.28	2095
2001.6	2090
1999.93	2065.5
1998.26	2062.5
1996.58	2046.5
1994.91	2081
1993.24	2043.5
1991.56	2029
1989.89	2061
1988.21	1999
1986.53	2028.5
1984.86	2023
1983.18	2037.5
1981.5	2006.5
1979.82	1993
1978.15	1989.5
1976.47	2000
1974.79	1986.5
1973.11	1986
1971.43	1986
1969.75	1957
1968.07	1962.5
1966.38	1939.5
1964.7	1903.5
1963.02	1915.5
1961.34	1911.5
1959.66	1927.5
1957.97	1910
1956.29	1875.5
1954.6	1920.5
1952.92	1879
1951.23	1889
1949.55	1859
1947.86	1874.5
1946.18	1853.5
1944.49	1881
1942.8	1827
1941.11	1837
1939.43	1804.5
1937.74	1797
1936.05	1797
1934.36	1815.5
1932.67	1786.5
1930.98	1789
1929.29	1795
1927.6	1814.5
1925.91	1770.5
1924.21	1740.5
1922.52	1728.5
1920.83	1757.5
1919.14	1723
1917.44	1727
1915.75	1724.5
1914.05	1726
1912.36	1740
1910.66	1719.5
1908.97	1708
1907.27	1715
1905.58	1687
1903.88	1650.5
1902.18	1685.5
1900.48	1638.5
1898.79	1654.5
1897.09	1649
1895.39	1609
1893.69	1640
1891.99	1653
1890.29	1625
1888.59	1592
1886.89	1623
1885.18	1613
1883.48	1609.5
1881.78	1583
1880.08	1552
1878.37	1594
1876.67	1563.5
1874.96	1549.5
1873.26	1536.5
1871.55	1571
1869.85	1563
1868.14	1527
1866.44	1518
1864.73	1518.5
1863.02	1504
1861.32	1470
1859.61	1483
1857.9	1495
1856.19	1478
1854.48	1499
1852.77	1492.5
1851.06	1472
1849.35	1492
1847.64	1481
1845.93	1487
1844.21	1461.5
1842.5	1414
1840.79	1456
1839.08	1430.5
1837.36	1429
1835.65	1435
1833.93	1450.5
1832.22	1436.5
1830.5	1411
1828.79	1406
1827.07	1413.5
1825.36	1364
1823.64	1411
1821.92	1378.5
1820.2	1398
1818.48	1367
1816.77	1374.5
1815.05	1333
1813.33	1359.5
1811.61	1373.5
1809.89	1362.5
1808.16	1356
1806.44	1357.5
1804.72	1340.5
1803	1329
1801.28	1313.5
1799.55	1312
1797.83	1286
1796.11	1314
1794.38	1316.5
1792.66	1347.5
1790.93	1294
1789.21	1318.5
1787.48	1311.5
1785.75	1302
1784.03	1297.5
1782.3	1280.5
1780.57	1279.5
1778.84	1248.5
1777.11	1264
1775.38	1262
1773.66	1269.5
1771.93	1265
1770.19	1258
1768.46	1290
1766.73	1272
1765	1234
1763.27	1292
1761.54	1263.5
1759.8	1310
1758.07	1272
1756.34	1310.5
1754.6	1279
1752.87	1308.5
1751.13	1334.5
1749.4	1306.5
1747.66	1313.5
1745.92	1300.5
1744.19	1291.5
1742.45	1305
1740.71	1308
1738.97	1258
1737.23	1299
1735.49	1277.5
1733.75	1286.5
1732.01	1244
1730.27	1269
1728.53	1231.5
1726.79	1210
1725.05	1176
1723.31	1223.5
1721.57	1212.5
1719.82	1199.5
1718.08	1182
1716.34	1198
1714.59	1169
1712.85	1191.5
1711.1	1184.5
1709.36	1187.5
1707.61	1147
1705.86	1158.5
1704.12	1166.5
1702.37	1136
1700.62	1139
1698.87	1146
1697.12	1135.5
1695.37	1142.5
1693.62	1152.5
1691.87	1155
1690.12	1143
1688.37	1106
1686.62	1135
1684.87	1115
1683.12	1095
1681.36	1096
1679.61	1112
1677.86	1093
1676.1	1100
1674.35	1130.5
1672.59	1174
1670.84	1170
1669.08	1211.5
1667.33	1243
1665.57	1258.5
1663.81	1275.5
1662.06	1373
1660.3	1385
1658.54	1454.5
1656.78	1448
1655.02	1436
1653.26	1373
1651.5	1342.5
1649.74	1278
1647.98	1228.5
1646.22	1197
1644.46	1170.5
1642.7	1127
1640.93	1102
1639.17	1098.5
1637.41	1106
1635.64	1072.5
1633.88	1072.5
1632.11	1062.5
1630.35	1053
1628.58	1024.5
1626.81	1068
1625.05	1037
1623.28	1017
1621.51	1001.5
1619.75	1008.5
1617.98	994
1616.21	1033
1614.44	1006
1612.67	1022.5
1610.9	1005.5
1609.13	1003
1607.36	986
1605.58	991
1603.81	989.5
1602.04	1002.5
1600.27	1001
1598.49	981.5
1596.72	989.5
1594.95	940
1593.17	974.5
1591.4	982
1589.62	969
1587.84	966
1586.07	1010
1584.29	940
1582.51	947
1580.74	966.5
1578.96	970
1577.18	952
1575.4	961.5
1573.62	972
1571.84	978
1570.06	966
1568.28	977.5
1566.5	958
1564.72	958
1562.93	961.5
1561.15	922.5
1559.37	928
1557.58	944
1555.8	930.5
1554.02	964.5
1552.23	926
1550.45	933
1548.66	930
1546.87	937
1545.09	903
1543.3	905.5
1541.51	884
1539.72	883
1537.94	890
1536.15	893
1534.36	927
1532.57	904
1530.78	897
1528.99	920
1527.2	882.5
1525.4	895.5
1523.61	898.5
1521.82	889
1520.03	891
1518.23	899
1516.44	898
1514.65	894
1512.85	929
1511.06	907
1509.26	900
1507.46	903
1505.67	919.5
1503.87	908
1502.07	911
1500.28	897
1498.48	920.5
1496.68	909
1494.88	928.5
1493.08	942.5
1491.28	937
1489.48	975.5
1487.68	980.5
1485.88	974.5
1484.08	999
1482.27	994
1480.47	1014.5
1478.67	1009
1476.86	1044
1475.06	1058
1473.25	1113.5
1471.45	1121.5
1469.64	1193.5
1467.84	1210
1466.03	1286
1464.23	1335
1462.42	1368
1460.61	1413
1458.8	1443
1456.99	1453.5
1455.18	1499
1453.37	1530
1451.56	1534.5
1449.75	1589.5
1447.94	1630
1446.13	1667
1444.32	1701.5
1442.51	1741
1440.7	1709
1438.88	1688
1437.07	1588
1435.26	1509.5
1433.44	1422
1431.63	1319.5
1429.81	1252.5
1427.99	1181.5
1426.18	1139
1424.36	1083.5
1422.54	1061.5
1420.73	1031
1418.91	1022.5
1417.09	994.5
1415.27	972.5
1413.45	958
1411.63	938
1409.81	904
1407.99	905
1406.17	924.5
1404.35	902.5
1402.53	913
1400.7	898
1398.88	889.5
1397.06	885.5
1395.23	906.5
1393.41	880.5
1391.58	896
1389.76	878
1387.93	847
1386.11	872.5
1384.28	889
1382.45	872
1380.62	880.5
1378.8	858
1376.97	877.5
1375.14	869
1373.31	876.5
1371.48	891
1369.65	881.5
1367.82	885.5
1365.99	905.5
1364.16	904.5
1362.32	901
1360.49	895
1358.66	881.5
1356.82	857
1354.99	862
1353.16	868
1351.32	873
1349.48	879
1347.65	883
1345.81	888.5
1343.98	876
1342.14	894
1340.3	891.5
1338.46	890.5
1336.62	898.5
1334.79	910
1332.95	906
1331.11	938
1329.27	960.5
1327.42	986.5
1325.58	1010.5
1323.74	1010.5
1321.9	1031.5
1320.06	1085
1318.21	1085.5
1316.37	1133
1314.53	1170
1312.68	1200
1310.84	1224
1308.99	1271.5
1307.15	1361.5
1305.3	1363
1303.45	1407
1301.61	1409
1299.76	1409.5
1297.91	1347
1296.06	1324
1294.21	1276.5
1292.36	1206
1290.51	1162
1288.66	1097.5
1286.81	1089.5
1284.96	1074
1283.11	1098
1281.26	1104
1279.4	1137
1277.55	1117
1275.7	1150
1273.84	1147.5
1271.99	1157.5
1270.13	1144.5
1268.28	1134
1266.42	1147
1264.56	1129
1262.71	1137
1260.85	1129
1258.99	1096
1257.13	1076
1255.27	1057.5
1253.41	1053.5
1251.56	1020.5
1249.7	982
1247.83	968.5
1245.97	974
1244.11	924.5
1242.25	923
1240.39	912
1238.52	917
1236.66	915.5
1234.8	904
1232.93	885.5
1231.07	894.5
1229.2	872.5
1227.34	866.5
1225.47	839.5
1223.6	837.5
1221.74	849.5
1219.87	838.5
1218	852.5
1216.13	838.5
1214.26	832.5
1212.39	844.5
1210.53	831
1208.65	833
1206.78	841
1204.91	827
1203.04	814
1201.17	799
1199.3	830
1197.42	817
1195.55	848.5
1193.68	843.5
1191.8	860
1189.93	837
1188.05	836.5
1186.17	827
1184.3	814.5
1182.42	822.5
1180.54	836.5
1178.67	810.5
1176.79	836.5
1174.91	833.5
1173.03	834.5
1171.15	834
1169.27	844.5
1167.39	817
1165.51	821
1163.63	812.5
1161.75	812
1159.86	823.5
1157.98	827
1156.1	842
1154.21	846.5
1152.33	868.5
1150.44	855.5
1148.56	859.5
1146.67	857
1144.79	883.5
1142.9	856
1141.01	868
1139.12	869.5
1137.24	902
1135.35	922.5
1133.46	945.5
1131.57	1006.5
1129.68	1008.5
1127.79	1029
1125.9	1006.5
1124.01	995.5
1122.12	978.5
1120.22	989.5
1118.33	985.5
1116.44	964.5
1114.54	990.5
1112.65	985.5
1110.75	984.5
1108.86	988
1106.96	1016
1105.07	1019
1103.17	1025.5
1101.27	1041.5
1099.38	1053
1097.48	1117
1095.58	1124
1093.68	1143.5
1091.78	1143
1089.88	1189
1087.98	1178.5
1086.08	1216
1084.18	1249.5
1082.28	1210.5
1080.38	1222.5
1078.47	1177.5
1076.57	1185.5
1074.67	1165
1072.76	1185.5
1070.86	1199.5
1068.95	1180.5
1067.05	1199.5
1065.14	1244
1063.24	1183
1061.33	1216
1059.42	1138.5
1057.51	1101.5
1055.6	1082
1053.7	1044.5
1051.79	1034
1049.88	1033
1047.97	1017
1046.06	1037
1044.14	1052.5
1042.23	1032.5
1040.32	1026.5
1038.41	1034.5
1036.5	1033
1034.58	1014.5
1032.67	1005
1030.75	1006
1028.84	1012.5
1026.92	1020.5
1025.01	1016
1023.09	1016.5
1021.17	1017
1019.26	1027
1017.34	1018.5
1015.42	1011.5
1013.5	994
1011.58	1012
1009.66	977
1007.74	983.5
1005.82	977.5
1003.9	998
1001.98	977.5
1000.06	1008.5
998.134	1015.5
996.212	1001
994.288	1026.5
992.364	1030.5
990.44	1047.5
988.515	1060
986.589	1058.5
984.663	1064.5
982.737	1131.5
980.81	1118
978.883	1133
976.955	1156.5
975.027	1183
973.098	1203.5
971.169	1206
969.239	1224.5
967.308	1190.5
965.378	1191.5
963.447	1179
961.516	1165.5
959.583	1190
957.65	1195
955.718	1190.5
953.784	1229.5
951.85	1237.5
949.916	1204
947.981	1240.5
946.045	1269.5
944.109	1246.5
942.173	1271.5
940.236	1260.5
938.298	1238
936.36	1272.5
934.422	1233.5
932.484	1217
930.544	1209
928.604	1172.5
926.664	1158.5
924.724	1138.5
922.782	1121.5
920.84	1150
918.898	1129
916.955	1148.5
915.012	1160
913.068	1150
911.124	1154.5
909.18	1158
907.235	1154
905.289	1179.5
903.343	1174
901.397	1170
899.45	1193.5
897.502	1177
895.554	1179.5
893.605	1213.5
891.657	1264.5
889.707	1296.5
887.758	1275
885.807	1234
883.856	1255
881.905	1260
879.953	1265
878.001	1273.5
876.048	1292.5
874.094	1284
872.14	1272
870.186	1343
868.232	1314.5
866.276	1333
864.321	1339
862.365	1319.5
860.408	1291
858.451	1314
856.493	1303
854.535	1276
852.576	1278
850.617	1277
848.658	1293
846.698	1289
844.737	1307.5
842.776	1271.5
840.814	1267.5
838.852	1251
836.89	1238.5
834.927	1237.5
832.963	1231
830.999	1202.5
829.035	1210
827.07	1167
825.105	1145
823.139	1148
821.172	1148.5
819.206	1103.5
817.238	1100
815.27	1107.5
813.301	1111
811.333	1086
809.363	1074.5
807.394	1054
805.424	1019.5
803.453	1046
801.482	1032.5
799.509	1006.5
797.538	1032.5
795.565	1015.5
793.592	1002
791.618	990.5
789.643	996.5
787.669	1022
785.693	1000
783.718	1009
781.742	997
779.765	976
777.788	999
775.811	1027.5
773.832	1008.5
771.853	1010.5
769.875	1003
767.895	1000.5
765.915	1013.5
763.934	1000.5
761.953	981.5
759.972	991.5
757.99	1005.5
756.007	1005
754.024	989.5
752.041	988
750.056	1061
748.072	1029
746.087	1001.5
744.102	1004
742.116	988.5
740.13	1002.5
738.143	1010.5
736.155	1013.5
734.167	995.5
732.179	1066
730.19	1029
728.2	1042
726.21	1051.5
724.22	1062.5
722.229	1050
720.237	1039
718.246	1034
716.253	1039.5
714.26	1032
712.267	1024
710.273	1039.5
708.279	1016
706.284	1028.5
704.289	1016
702.293	1011
700.296	1020.5
698.3	1008.5
696.303	1015
694.305	1012.5
692.307	1002.5
690.307	1010
688.308	1052.5
686.309	1034
684.308	1022.5
682.308	1066
680.306	1031.5
678.304	1030.5
676.302	1011.5
674.3	1026
672.296	1042
670.293	1042
668.289	1037
666.284	1049.5
664.278	1044.5
662.273	1056
660.266	1053.5
658.26	1064.5
656.252	1079.5
654.244	1053.5
652.237	1074.5
650.227	1053
648.218	1053.5
646.209	1056.5
644.198	1073
642.188	1069
640.177	1071
638.165	1084
636.153	1057.5
634.14	1113
632.128	1088.5
630.113	1073
628.099	1104.5
626.085	1105
624.07	1120
622.054	1118.5
620.038	1127.5
618.021	1116.5
616.004	1144.5
613.986	1164.5
611.968	1152.5
609.949	1147.5
607.93	1142
605.911	1159.5
603.891	1162.5
601.87	1154.5
599.848	1160
597.827	1157.5
595.805	1146.5
593.782	1155
591.759	1149.5
589.735	1162.5
587.711	1179
585.687	1136.5
583.661	1155
581.636	1164.5
579.609	1135
577.583	1155
575.555	1152
573.527	1149
571.5	1161
569.471	1152.5
567.441	1160.5
565.412	1170
563.382	1174
561.351	1187.5
559.32	1185.5
557.289	1175
555.257	1204
553.223	1246.5
551.19	1232.5
549.157	1288
547.122	1258.5
545.088	1305.5
543.053	1323.5
541.017	1351.5
538.981	1408
536.943	1465.5
534.907	1630
532.869	1851
530.831	2235.5
528.792	2910.5
526.752	3948.5
524.713	5444
522.673	6564
520.632	6509.5
518.591	5394.5
516.549	4122.5
514.507	3072
512.464	2370.5
510.42	1909
508.377	1669
506.332	1550
504.288	1443.5
502.242	1410.5
500.196	1358
498.15	1378.5
496.104	1341.5
494.056	1342
492.008	1337
489.96	1300
487.911	1290.5
485.862	1341
483.812	1307
481.761	1338.5
479.71	1298.5
477.659	1285.5
475.607	1319.5
473.555	1276
471.502	1298.5
469.448	1313
467.395	1293.5
465.34	1294
463.285	1310
461.23	1290
459.174	1300.5
457.118	1299
455.061	1316.5
453.003	1328
450.945	1343
448.887	1319
446.828	1360
444.768	1334.5
442.708	1336
440.647	1343
438.587	1349.5
436.525	1392.5
434.463	1358
432.4	1387
430.337	1367.5
428.274	1382
426.21	1396.5
424.145	1403
422.079	1428
420.014	1395.5
417.948	1405
415.882	1371.5
413.814	1381.5
411.746	1417.5
409.679	1413
407.609	1411.5
405.54	1414.5
403.47	1435
401.401	1449.5
399.329	1417
397.258	1414.5
395.187	1445
393.114	1429.5
391.041	1435
388.968	1396
386.895	1406.5
384.82	1409.5
382.745	1431.5
380.67	1438
378.594	1468.5
376.517	1432.5
374.44	1470
372.363	1462.5
370.286	1450
368.207	1443.5
366.128	1471.5
364.049	1457.5
361.969	1512.5
359.888	1473.5
357.807	1518.5
355.725	1497.5
353.643	1484.5
351.561	1490.5
349.477	1535
347.394	1507
345.31	1480.5
343.226	1507.5
341.141	1469.5
339.055	1531.5
336.968	1548.5
334.882	1520
332.795	1556.5
330.707	1531
328.618	1610.5
326.53	1594
324.44	1551
322.351	1600
320.26	1582.5
318.17	1618.5
316.078	1631.5
313.987	1685.5
311.895	1688
309.802	1756
307.708	1758.5
305.614	1801
303.52	1813.5
301.425	1765
299.329	1761
297.233	1750.5
295.137	1719.5
293.039	1708
290.942	1695.5
288.844	1695.5
286.745	1710
284.647	1718.5
282.546	1752
280.446	1757
278.346	1764
276.245	1727
274.143	1722
272.041	1715.5
269.939	1710.5
267.835	1738.5
265.731	1710.5
263.627	1741.5
261.522	1745.5
259.417	1751.5
257.311	1779
255.204	1758
253.098	1764
250.99	1785.5
248.882	1786.5
246.774	1781.5
244.664	1783
242.555	1814
240.445	1838
238.334	1863.5
236.223	1886.5
234.112	1904.5
232	1881
229.888	1899
227.775	1899.5
225.661	1963
223.546	1920
221.431	1922.5
219.316	1932.5
217.201	1947.5
215.084	1948
212.967	1956
210.85	1964
208.732	1985.5
206.614	1963
204.495	1984.5
202.375	1964.5
200.256	1929
198.135	1923
196.014	1944.5
193.893	1956
191.771	1945.5
189.648	1925.5
187.525	1938.5
185.401	1945
183.277	1953
181.152	1964
179.027	1952
176.901	1930
174.775	1933
172.648	1935
170.521	1965.5
168.393	1983
166.265	2037
164.136	1988
162.007	2047
159.876	2043
157.746	2071
155.615	2094
153.483	2121.5
151.351	2150
149.219	2139.5
147.086	2228
144.952	2246.5
142.818	2315
140.684	2342.5
138.548	2402.5
136.413	2473
134.276	2490
132.139	2561.5
130.002	2596.5
127.864	2662.5
125.725	2735
123.587	2809.5
121.447	2851
119.307	2875
117.166	2990.5
115.026	3054
112.885	3148
110.743	3164.5
108.6	3273.5
106.456	3241.5
104.313	3232
102.169	3159.5
100.023	3045
97.8789	2799
95.7328	2519.5
93.5869	2175
91.4392	1857
89.2919	1507
87.1447	1190
84.9959	909
