3528.51	157.111
3527.23	166
3525.95	172.444
3524.67	177.333
3523.39	188
3522.1	182.222
3520.82	182.222
3519.54	191.333
3518.26	177.111
3516.97	176.444
3515.69	194.222
3514.4	184.889
3513.12	192.889
3511.84	184.444
3510.55	196.222
3509.26	185.778
3507.98	191.778
3506.69	189.778
3505.41	191.778
3504.12	191.778
3502.83	201.333
3501.54	204.667
3500.26	216.667
3498.97	213.778
3497.68	209.778
3496.39	211.778
3495.1	210.889
3493.81	223.778
3492.52	225.333
3491.23	225.333
3489.94	232.667
3488.65	243.556
3487.36	241.333
3486.07	233.778
3484.78	245.778
3483.49	245.778
3482.19	251.778
3480.9	244
3479.61	261.333
3478.31	262.222
3477.02	263.111
3475.73	272.444
3474.43	266.444
3473.14	268.667
3471.84	283.778
3470.54	272.444
3469.25	267.556
3467.95	280
3466.66	282.444
3465.36	286.222
3464.06	284.667
3462.76	285.333
3461.46	285.556
3460.17	290
3458.87	295.333
3457.57	285.556
3456.27	299.556
3454.97	296.222
3453.67	296.222
3452.37	304.222
3451.07	312.444
3449.77	311.556
3448.47	317.333
3447.16	312.889
3445.86	326
3444.56	330.889
3443.26	339.778
3441.95	328.667
3440.65	344.222
3439.35	347.556
3438.04	354.667
3436.74	366.667
3435.43	368.889
3434.13	378.444
3432.82	382
3431.52	387.778
3430.21	401.333
3428.9	396.444
3427.6	410.444
3426.29	407.556
3424.98	419.333
3423.67	432
3422.36	438.222
3421.06	435.556
3419.75	448
3418.44	451.778
3417.13	464
3415.82	468
3414.51	474.889
3413.2	480.889
3411.88	472
3410.57	480.444
3409.26	478.444
3407.95	500.889
3406.64	498.444
3405.32	498.667
3404.01	507.778
3402.7	502.444
3401.38	500.889
3400.07	524.667
3398.75	507.778
3397.44	519.333
3396.12	528
3394.81	536
3393.49	536
3392.18	526
3390.86	544
3389.54	548
3388.23	554
3386.91	558
3385.59	563.111
3384.27	560
3382.95	572.444
3381.63	585.556
3380.31	575.556
3378.99	575.556
3377.67	594.444
3376.35	582
3375.03	615.111
3373.71	607.556
3372.39	607.556
3371.07	620.667
3369.75	617.778
3368.42	630.667
3367.1	624.444
3365.78	635.556
3364.45	637.111
3363.13	644.667
3361.81	649.556
3360.48	657.111
3359.16	658.222
3357.83	652.889
3356.51	671.333
3355.18	659.778
3353.85	676.444
3352.53	673.333
3351.2	670
3349.87	675.556
3348.54	690.222
3347.22	680
3345.89	680.667
3344.56	699.778
3343.23	681.333
3341.9	691.778
3340.57	706.889
3339.24	695.333
3337.91	711.333
3336.58	692.667
3335.25	695.556
3333.92	710.222
3332.58	711.333
3331.25	712.667
3329.92	714.222
3328.59	722
3327.25	719.333
3325.92	737.111
3324.58	726
3323.25	728.222
3321.92	743.778
3320.58	743.555
3319.25	747.555
3317.91	741.333
3316.57	746.667
3315.24	766.222
3313.9	753.556
3312.56	756.444
3311.23	764.667
3309.89	761.111
3308.55	779.778
3307.21	763.556
3305.87	781.333
3304.53	789.555
3303.19	784.889
3301.85	796.667
3300.51	802.667
3299.17	790.889
3297.83	792
3296.49	806.222
3295.15	808
3293.81	810.889
3292.46	818.444
3291.12	824
3289.78	833.556
3288.43	822.222
3287.09	835.111
3285.75	825.778
3284.4	831.778
3283.06	836.889
3281.71	836
3280.37	844.667
3279.02	838.222
3277.67	837.333
3276.33	862
3274.98	852
3273.63	849.333
3272.28	873.556
3270.94	882.667
3269.59	874.667
3268.24	877.111
3266.89	886.222
3265.54	900.222
3264.19	919.111
3262.84	918.222
3261.49	934.889
3260.14	954
3258.79	958.444
3257.44	987.555
3256.08	1007.78
3254.73	1039.11
3253.38	1044
3252.03	1054.89
3250.67	1092.22
3249.32	1109.11
3247.96	1137.33
3246.61	1172.89
3245.26	1213.56
3243.9	1239.78
3242.54	1253.33
3241.19	1298.44
3239.83	1316.44
3238.48	1358.67
3237.12	1393.56
3235.76	1413.78
3234.41	1463.78
3233.05	1490.67
3231.69	1511.33
3230.33	1539.78
3228.97	1598.89
3227.61	1626.44
3226.25	1667.78
3224.89	1672.67
3223.53	1707.11
3222.17	1746.44
3220.81	1780.22
3219.45	1768.89
3218.09	1788
3216.72	1821.11
3215.36	1859.56
3214	1857.78
3212.63	1869.11
3211.27	1895.78
3209.91	1907.78
3208.54	1938.22
3207.18	1937.56
3205.81	1960
3204.45	1965.56
3203.08	1976.22
3201.71	1976.67
3200.35	1996.22
3198.98	2015.56
3197.61	2019.78
3196.25	2024.22
3194.88	2033.56
3193.51	2058
3192.14	2056.89
3190.77	2074.89
3189.4	2073.33
3188.03	2078.22
3186.66	2099.11
3185.29	2107.11
3183.92	2121.11
3182.55	2122.67
3181.18	2131.78
3179.81	2160.67
3178.44	2141.78
3177.06	2175.78
3175.69	2181.56
3174.32	2209.56
3172.94	2222.89
3171.57	2236.22
3170.2	2251.78
3168.82	2287.11
3167.45	2254.44
3166.07	2328.67
3164.69	2291.56
3163.32	2315.56
3161.94	2345.78
3160.56	2370.44
3159.19	2383.11
3157.81	2416.22
3156.43	2406.44
3155.05	2424.67
3153.67	2446.67
3152.3	2454
3150.92	2485.78
3149.54	2488.44
3148.16	2530.67
3146.78	2530
3145.4	2554.22
3144.01	2547.56
3142.63	2573.78
3141.25	2590.89
3139.87	2615.11
3138.49	2632
3137.1	2659.56
3135.72	2652
3134.34	2672.67
3132.95	2696
3131.57	2726.89
3130.18	2721.11
3128.8	2766.89
3127.41	2767.33
3126.03	2800.67
3124.64	2785.78
3123.25	2836.89
3121.87	2832.89
3120.48	2858
3119.09	2870.44
3117.7	2880.22
3116.32	2920
3114.93	2931.56
3113.54	2934.89
3112.15	2925.78
3110.76	2949.78
3109.37	2949.11
3107.98	2982.44
3106.59	2974.44
3105.2	3017.33
3103.8	3000
3102.41	3038.89
3101.02	3059.56
3099.63	3066.22
3098.23	3068.22
3096.84	3105.11
3095.45	3100.67
3094.05	3133.78
3092.66	3162
3091.26	3122.44
3089.87	3146
3088.47	3169.33
3087.08	3192.67
3085.68	3199.33
3084.28	3184
3082.89	3190.22
3081.49	3202.67
3080.09	3231.78
3078.69	3202.89
3077.3	3246.44
3075.9	3228.67
3074.5	3250.89
3073.1	3278
3071.7	3283.11
3070.3	3272
3068.9	3291.78
3067.5	3296.67
3066.09	3301.56
3064.69	3319.11
3063.29	3295.33
3061.89	3332.22
3060.48	3331.56
3059.08	3356.89
3057.68	3341.33
3056.27	3393.78
3054.87	3385.33
3053.46	3387.33
3052.06	3402.44
3050.65	3385.56
3049.25	3415.78
3047.84	3422.89
3046.44	3448.89
3045.03	3476.44
3043.62	3472
3042.21	3467.11
3040.81	3490.22
3039.4	3493.33
3037.99	3501.11
3036.58	3518.22
3035.17	3508.22
3033.76	3511.11
3032.35	3554
3030.94	3534
3029.53	3577.33
3028.12	3569.78
3026.71	3552.67
3025.29	3574.67
3023.88	3575.56
3022.47	3595.78
3021.06	3617.56
3019.64	3617.11
3018.23	3610.89
3016.82	3614.44
3015.4	3611.11
3013.99	3613.11
3012.57	3622
3011.15	3625.56
3009.74	3647.33
3008.32	3666
3006.91	3659.78
3005.49	3661.78
3004.07	3717.78
3002.65	3690.44
3001.24	3690
2999.82	3712
2998.4	3758.89
2996.98	3744
2995.56	3785.11
2994.14	3789.56
2992.72	3810.44
2991.3	3828
2989.88	3827.33
2988.46	3829.78
2987.03	3843.56
2985.61	3885.33
2984.19	3892.67
2982.77	3945.56
2981.34	3950.44
2979.92	3982
2978.49	3992.44
2977.07	4003.11
2975.65	4008.22
2974.22	4065.56
2972.79	4079.56
2971.37	4081.56
2969.94	4084.44
2968.52	4123.56
2967.09	4127.11
2965.66	4127.78
2964.23	4184.89
2962.81	4205.56
2961.38	4205.56
2959.95	4246.67
2958.52	4246
2957.09	4258.44
2955.66	4238.67
2954.23	4286.67
2952.8	4280
2951.37	4294.89
2949.94	4274.67
2948.5	4289.78
2947.07	4307.11
2945.64	4328.89
2944.21	4370.67
2942.77	4374.67
2941.34	4360.67
2939.91	4392
2938.47	4394.44
2937.04	4448
2935.6	4477.33
2934.17	4470.67
2932.73	4450.22
2931.29	4496.22
2929.86	4529.11
2928.42	4493.78
2926.98	4544
2925.55	4557.11
2924.11	4590.67
2922.67	4586.44
2921.23	4594.89
2919.79	4633.33
2918.35	4619.11
2916.91	4652.22
2915.47	4653.11
2914.03	4660.67
2912.59	4637.11
2911.15	4686.89
2909.71	4693.56
2908.26	4674.22
2906.82	4700.89
2905.38	4699.11
2903.94	4699.33
2902.49	4734.89
2901.05	4742
2899.6	4734.22
2898.16	4761.11
2896.71	4743.33
2895.27	4793.78
2893.82	4798.67
2892.38	4802.89
2890.93	4831.11
2889.48	4817.78
2888.03	4817.78
2886.59	4856
2885.14	4829.33
2883.69	4852.67
2882.24	4870.67
2880.79	4818.89
2879.34	4855.33
2877.89	4852
2876.44	4835.56
2874.99	4845.78
2873.54	4858.67
2872.09	4869.11
2870.64	4842
2869.18	4859.56
2867.73	4822.67
2866.28	4838.44
2864.83	4872.67
2863.37	4884.67
2861.92	4825.78
2860.46	4864
2859.01	4910.89
2857.55	4902.22
2856.1	4878.67
2854.64	4908
2853.19	4884
2851.73	4890.44
2850.27	4875.33
2848.81	4882.44
2847.36	4889.33
2845.9	4881.78
2844.44	4850.22
2842.98	4846.44
2841.52	4802.44
2840.06	4764.22
2838.6	4738.22
2837.14	4727.78
2835.68	4701.33
2834.22	4697.56
2832.76	4697.33
2831.3	4670
2829.83	4635.78
2828.37	4618.44
2826.91	4632.67
2825.44	4629.11
2823.98	4595.78
2822.52	4566
2821.05	4566.89
2819.59	4569.78
2818.12	4550
2816.66	4535.33
2815.19	4519.78
2813.72	4500.89
2812.26	4491.11
2810.79	4457.11
2809.32	4472.44
2807.85	4471.56
2806.38	4413.78
2804.92	4447.56
2803.45	4428.89
2801.98	4404.67
2800.51	4440.67
2799.04	4437.78
2797.57	4445.11
2796.1	4402.44
2794.62	4405.11
2793.15	4418.89
2791.68	4410.44
2790.21	4426
2788.73	4397.11
2787.26	4412.67
2785.79	4387.78
2784.31	4421.11
2782.84	4416
2781.36	4406.89
2779.89	4443.33
2778.41	4443.56
2776.94	4446.89
2775.46	4450.89
2773.99	4452.67
2772.51	4458.44
2771.03	4460
2769.55	4476.67
2768.07	4472.67
2766.6	4461.56
2765.12	4488.22
2763.64	4514
2762.16	4509.33
2760.68	4493.11
2759.2	4480.89
2757.72	4482.67
2756.24	4499.33
2754.75	4506.89
2753.27	4489.56
2751.79	4516.44
2750.31	4478.67
2748.82	4494.44
2747.34	4479.56
2745.86	4491.11
2744.37	4471.56
2742.89	4504.89
2741.4	4471.11
2739.92	4472.89
2738.43	4480.89
2736.94	4456
2735.46	4479.33
2733.97	4455.56
2732.48	4470.44
2731	4462.89
2729.51	4451.78
2728.02	4446.67
2726.53	4438.44
2725.04	4453.56
2723.55	4459.11
2722.06	4444
2720.57	4452.89
2719.08	4419.11
2717.59	4446.22
2716.1	4450
2714.61	4437.11
2713.11	4421.33
2711.62	4452.22
2710.13	4422.89
2708.64	4452
2707.14	4454
2705.65	4436.89
2704.15	4437.33
2702.66	4437.56
2701.16	4417.11
2699.67	4420.67
2698.17	4408
2696.67	4365.56
2695.18	4374.44
2693.68	4370.22
2692.18	4373.11
2690.69	4374.44
2689.19	4372.67
2687.69	4336.22
2686.19	4366.89
2684.69	4325.33
2683.19	4320.44
2681.69	4285.33
2680.19	4348.44
2678.69	4324.89
2677.19	4288.89
2675.68	4301.11
2674.18	4295.56
2672.68	4295.11
2671.18	4263.56
2669.67	4300.89
2668.17	4270.22
2666.66	4258.89
2665.16	4283.56
2663.66	4261.78
2662.15	4250.44
2660.64	4226.89
2659.14	4239.56
2657.63	4223.78
2656.13	4207.78
2654.62	4232.67
2653.11	4223.33
2651.6	4203.78
2650.09	4184
2648.58	4201.11
2647.08	4168.67
2645.57	4190.67
2644.06	4202.44
2642.55	4148.67
2641.04	4170.44
2639.52	4142.22
2638.01	4141.11
2636.5	4130
2634.99	4144
2633.48	4092.89
2631.96	4111.33
2630.45	4084.22
2628.94	4026
2627.42	4034.89
2625.91	4027.56
2624.39	4054.89
2622.88	4030
2621.36	4040.22
2619.85	4005.11
2618.33	4015.33
2616.81	4041.33
2615.3	4043.11
2613.78	4049.56
2612.26	4057.78
2610.74	4017.56
2609.22	4006.67
2607.7	4036.22
2606.18	4011.33
2604.66	3987.33
2603.14	3977.56
2601.62	3976.67
2600.1	3965.78
2598.58	3916.67
2597.06	3920.44
2595.54	3935.56
2594.01	3918.89
2592.49	3907.56
2590.97	3875.11
2589.44	3852.89
2587.92	3865.11
2586.39	3872.67
2584.87	3876.89
2583.34	3861.33
2581.82	3841.11
2580.29	3837.56
2578.76	3841.78
2577.24	3821.11
2575.71	3800.89
2574.18	3810
2572.65	3822.44
2571.13	3833.11
2569.6	3831.56
2568.07	3800
2566.54	3787.11
2565.01	3772
2563.48	3768.44
2561.95	3757.11
2560.42	3746.89
2558.88	3736.89
2557.35	3732.89
2555.82	3720.67
2554.29	3707.78
2552.75	3708.44
2551.22	3710.67
2549.69	3716.22
2548.15	3699.33
2546.62	3663.78
2545.08	3699.11
2543.55	3686.44
2542.01	3679.78
2540.47	3636.89
2538.94	3617.33
2537.4	3630.22
2535.86	3624.89
2534.33	3604.67
2532.79	3592.67
2531.25	3592
2529.71	3587.56
2528.17	3555.33
2526.63	3570.22
2525.09	3540.22
2523.55	3541.33
2522.01	3522.89
2520.47	3542.22
2518.92	3516.22
2517.38	3490
2515.84	3478.44
2514.3	3476.67
2512.75	3458.44
2511.21	3467.33
2509.67	3461.56
2508.12	3458
2506.58	3418.89
2505.03	3446
2503.49	3435.33
2501.94	3394.44
2500.39	3398
2498.85	3390.22
2497.3	3379.56
2495.75	3365.78
2494.2	3344.22
2492.65	3328.44
2491.11	3365.78
2489.56	3327.11
2488.01	3293.78
2486.46	3292.44
2484.91	3273.56
2483.36	3272.44
2481.8	3260.89
2480.25	3238
2478.7	3250.89
2477.15	3236.22
2475.6	3256.89
2474.04	3199.56
2472.49	3203.33
2470.93	3183.33
2469.38	3191.56
2467.83	3134.67
2466.27	3153.56
2464.71	3132.44
2463.16	3106.89
2461.6	3092.67
2460.05	3092.22
2458.49	3075.11
2456.93	3074.22
2455.37	3048.67
2453.81	3030.67
2452.26	3034
2450.7	3022.44
2449.14	3013.78
2447.58	3008.44
2446.02	2972.67
2444.46	2994.44
2442.9	2974.67
2441.33	2967.33
2439.77	2950.44
2438.21	2956
2436.65	2946.89
2435.08	2924
2433.52	2911.33
2431.96	2926.67
2430.39	2914.44
2428.83	2906.67
2427.26	2927.56
2425.7	2907.11
2424.13	2894
2422.56	2889.78
2421	2892.67
2419.43	2843.56
2417.86	2847.78
2416.3	2833.33
2414.73	2833.11
2413.16	2825.78
2411.59	2813.56
2410.02	2814
2408.45	2797.78
2406.88	2834.89
2405.31	2800.22
2403.74	2795.33
2402.17	2791.56
2400.6	2812
2399.02	2784.67
2397.45	2779.78
2395.88	2785.33
2394.3	2775.56
2392.73	2760.89
2391.16	2756.67
2389.58	2748.67
2388.01	2741.11
2386.43	2713.78
2384.86	2731.56
2383.28	2720
2381.7	2718.22
2380.13	2731.11
2378.55	2711.33
2376.97	2703.56
2375.39	2707.56
2373.81	2716.67
2372.23	2684.89
2370.65	2698.67
2369.07	2712
2367.49	2678.44
2365.91	2676.89
2364.33	2669.56
2362.75	2644.22
2361.17	2643.56
2359.59	2636.44
2358.01	2609.33
2356.42	2628.44
2354.84	2636.22
2353.25	2618.22
2351.67	2583.56
2350.09	2593.33
2348.5	2612.44
2346.92	2592.67
2345.33	2610.22
2343.74	2585.11
2342.16	2576.22
2340.57	2638.22
2338.98	2569.78
2337.39	2577.56
2335.81	2563.33
2334.22	2536.22
2332.63	2520.44
2331.04	2543.33
2329.45	2540
2327.86	2535.11
2326.27	2543.78
2324.68	2518.44
2323.09	2510
2321.49	2518.67
2319.9	2480
2318.31	2495.11
2316.72	2518.44
2315.12	2479.78
2313.53	2482.67
2311.93	2477.33
2310.34	2476.67
2308.74	2428.67
2307.15	2426
2305.55	2451.11
2303.96	2414.89
2302.36	2395.78
2300.76	2381.56
2299.17	2369.56
2297.57	2365.78
2295.97	2343.33
2294.37	2358
2292.77	2362.89
2291.17	2337.78
2289.57	2322.22
2287.97	2310.44
2286.37	2298.89
2284.77	2327.33
2283.17	2304
2281.57	2308.44
2279.96	2337.56
2278.36	2294.44
2276.76	2279.11
2275.15	2281.11
2273.55	2274.89
2271.95	2266.67
2270.34	2253.78
2268.74	2254.67
2267.13	2240.22
2265.52	2244.22
2263.92	2241.33
2262.31	2204.89
2260.7	2203.11
2259.1	2218.67
2257.49	2202.44
2255.88	2184.89
2254.27	2176
2252.66	2173.11
2251.05	2167.33
2249.44	2171.78
2247.83	2175.33
2246.22	2156
2244.61	2163.56
2243	2164.67
2241.39	2149.33
2239.77	2142.22
2238.16	2129.78
2236.55	2093.56
2234.93	2082.89
2233.32	2111.33
2231.7	2095.78
2230.09	2077.11
2228.47	2055.78
2226.86	2071.33
2225.24	2055.78
2223.63	2035.56
2222.01	2028.89
2220.39	2030.67
2218.77	2002.89
2217.16	2023.56
2215.54	2007.11
2213.92	2001.33
2212.3	1979.56
2210.68	1968.44
2209.06	1995.56
2207.44	1965.56
2205.82	1941.11
2204.19	1965.33
2202.57	1958
2200.95	1957.78
2199.33	1957.78
2197.7	1940.67
2196.08	1932.67
2194.46	1924.89
2192.83	1938
2191.21	1921.11
2189.58	1913.78
2187.96	1902.89
2186.33	1915.33
2184.7	1909.11
2183.08	1891.33
2181.45	1892.44
2179.82	1880.44
2178.19	1884.67
2176.57	1875.33
2174.94	1890.67
2173.31	1860.67
2171.68	1871.33
2170.05	1828.89
2168.42	1832.44
2166.79	1828.89
2165.16	1804.44
2163.52	1833.11
2161.89	1816.22
2160.26	1794.44
2158.63	1790.89
2156.99	1798.22
2155.36	1778
2153.73	1786.22
2152.09	1748.89
2150.46	1767.78
2148.82	1766
2147.18	1756.22
2145.55	1724.22
2143.91	1732.67
2142.27	1732.89
2140.64	1721.56
2139	1721.78
2137.36	1717.56
2135.72	1699.33
2134.08	1707.56
2132.44	1681.56
2130.8	1683.33
2129.16	1647.56
2127.52	1670
2125.88	1649.56
2124.24	1630.44
2122.6	1616.22
2120.95	1622
2119.31	1607.11
2117.67	1616.89
2116.02	1597.33
2114.38	1591.78
2112.74	1612.89
2111.09	1584.44
2109.45	1555.78
2107.8	1572
2106.15	1563.78
2104.51	1554
2102.86	1570.44
2101.21	1539.11
2099.56	1564.67
2097.92	1543.33
2096.27	1535.78
2094.62	1525.56
2092.97	1552
2091.32	1542
2089.67	1529.33
2088.02	1522.89
2086.37	1526.67
2084.72	1502.67
2083.06	1512.67
2081.41	1527.78
2079.76	1504.67
2078.1	1502.44
2076.45	1489.56
2074.8	1483.11
2073.14	1490
2071.49	1484.89
2069.83	1491.33
2068.18	1479.78
2066.52	1470
2064.86	1456.89
2063.21	1465.56
2061.55	1471.11
2059.89	1443.78
2058.23	1459.11
2056.57	1447.78
2054.92	1450.22
2053.26	1447.78
2051.6	1448
2049.94	1425.56
2048.27	1441.33
2046.61	1432.22
2044.95	1417.78
2043.29	1408.89
2041.63	1421.33
2039.97	1400.89
2038.3	1384
2036.64	1379.11
2034.97	1367.33
2033.31	1371.78
2031.64	1366
2029.98	1350.89
2028.31	1337.33
2026.65	1329.11
2024.98	1329.33
2023.31	1312.89
2021.65	1329.78
2019.98	1304.67
2018.31	1307.56
2016.64	1297.33
2014.97	1284
2013.3	1298.89
2011.63	1288.44
2009.96	1291.33
2008.29	1289.33
2006.62	1282.89
2004.95	1288.67
2003.28	1284.67
2001.6	1268
1999.93	1257.78
1998.26	1272.44
1996.58	1264
1994.91	1270
1993.24	1253.56
1991.56	1251.56
1989.89	1233.11
1988.21	1255.78
1986.53	1224.22
1984.86	1218.89
1983.18	1215.78
1981.5	1224.22
1979.82	1202.44
1978.15	1188.89
1976.47	1203.78
1974.79	1196.89
1973.11	1182.44
1971.43	1189.56
1969.75	1174.22
1968.07	1165.33
1966.38	1164.44
1964.7	1156.44
1963.02	1147.78
1961.34	1142.22
1959.66	1148.89
1957.97	1145.33
1956.29	1146.89
1954.6	1140.67
1952.92	1140
1951.23	1134.22
1949.55	1124.22
1947.86	1122.89
1946.18	1108.22
1944.49	1108.67
1942.8	1112.89
1941.11	1089.56
1939.43	1080.22
1937.74	1097.56
1936.05	1091.33
1934.36	1089.11
1932.67	1084.89
1930.98	1068.67
1929.29	1073.33
1927.6	1064.67
1925.91	1058
1924.21	1043.78
1922.52	1053.33
1920.83	1041.11
1919.14	1039.11
1917.44	1031.33
1915.75	1026.67
1914.05	1041.11
1912.36	1036
1910.66	1034.44
1908.97	1025.11
1907.27	1008.44
1905.58	1014
1903.88	1015.11
1902.18	997.111
1900.48	988.889
1898.79	995.111
1897.09	989.778
1895.39	986.444
1893.69	974
1891.99	967.333
1890.29	974.667
1888.59	950
1886.89	953.333
1885.18	950.444
1883.48	943.556
1881.78	932
1880.08	935.333
1878.37	925.333
1876.67	927.556
1874.96	909.333
1873.26	912.667
1871.55	904.667
1869.85	907.111
1868.14	898.667
1866.44	907.556
1864.73	896.444
1863.02	900.667
1861.32	893.111
1859.61	883.111
1857.9	886.667
1856.19	874.444
1854.48	867.778
1852.77	873.556
1851.06	874.889
1849.35	859.333
1847.64	845.111
1845.93	870.667
1844.21	849.778
1842.5	871.333
1840.79	845.111
1839.08	845.556
1837.36	860.889
1835.65	847.778
1833.93	833.778
1832.22	840.444
1830.5	837.333
1828.79	821.111
1827.07	827.556
1825.36	821.778
1823.64	810
1821.92	795.778
1820.2	820.222
1818.48	802.444
1816.77	803.556
1815.05	800.667
1813.33	800.889
1811.61	785.556
1809.89	781.111
1808.16	784
1806.44	783.333
1804.72	785.333
1803	779.111
1801.28	770
1799.55	776.444
1797.83	764
1796.11	766.667
1794.38	763.556
1792.66	762
1790.93	758.222
1789.21	749.333
1787.48	746
1785.75	750.889
1784.03	730.667
1782.3	734.889
1780.57	737.111
1778.84	732.444
1777.11	747.556
1775.38	731.778
1773.66	743.555
1771.93	726.667
1770.19	734.667
1768.46	736.444
1766.73	752.444
1765	740.444
1763.27	736
1761.54	748.889
1759.8	745.556
1758.07	780.667
1756.34	779.333
1754.6	775.778
1752.87	789.333
1751.13	793.778
1749.4	808
1747.66	808
1745.92	792.222
1744.19	790.889
1742.45	782.667
1740.71	780.889
1738.97	762.667
1737.23	753.778
1735.49	756.222
1733.75	735.111
1732.01	717.778
1730.27	728.444
1728.53	710.444
1726.79	707.778
1725.05	695.333
1723.31	688.667
1721.57	688.889
1719.82	688.444
1718.08	673.333
1716.34	672.222
1714.59	678.222
1712.85	662.444
1711.1	652.667
1709.36	658
1707.61	656.667
1705.86	654.444
1704.12	640.889
1702.37	650.889
1700.62	647.333
1698.87	641.111
1697.12	644.667
1695.37	634.667
1693.62	642.444
1691.87	625.556
1690.12	634.444
1688.37	626
1686.62	618.667
1684.87	626
1683.12	635.333
1681.36	621.778
1679.61	635.111
1677.86	643.111
1676.1	646.667
1674.35	656.222
1672.59	669.111
1670.84	669.556
1669.08	704.222
1667.33	710.889
1665.57	761.778
1663.81	789.778
1662.06	848.889
1660.3	887.778
1658.54	926.444
1656.78	935.778
1655.02	893.778
1653.26	871.778
1651.5	835.556
1649.74	785.556
1647.98	762.444
1646.22	712.222
1644.46	690.444
1642.7	660.222
1640.93	648.889
1639.17	622.889
1637.41	615.778
1635.64	596.222
1633.88	596.444
1632.11	590.889
1630.35	586.889
1628.58	580.444
1626.81	573.778
1625.05	563.111
1623.28	575.111
1621.51	558.222
1619.75	549.333
1617.98	552.444
1616.21	555.111
1614.44	552
1612.67	548.667
1610.9	543.111
1609.13	542.667
1607.36	544.667
1605.58	541.778
1603.81	532
1602.04	540
1600.27	532.222
1598.49	527.111
1596.72	532.667
1594.95	515.333
1593.17	530.667
1591.4	540
1589.62	535.111
1587.84	528.667
1586.07	531.778
1584.29	526.222
1582.51	526
1580.74	516.667
1578.96	508.667
1577.18	526.667
1575.4	519.778
1573.62	516.667
1571.84	514.222
1570.06	512.667
1568.28	512
1566.5	497.333
1564.72	507.111
1562.93	497.778
1561.15	512.667
1559.37	507.778
1557.58	504.889
1555.8	504.667
1554.02	502
1552.23	494.667
1550.45	492.222
1548.66	497.778
1546.87	494.222
1545.09	498.444
1543.3	478.444
1541.51	482.222
1539.72	489.556
1537.94	480.444
1536.15	481.778
1534.36	479.778
1532.57	486.444
1530.78	480.889
1528.99	484.889
1527.2	468.667
1525.4	482
1523.61	483.111
1521.82	482.444
1520.03	479.778
1518.23	479.556
1516.44	489.778
1514.65	485.556
1512.85	479.778
1511.06	485.778
1509.26	476.889
1507.46	486.889
1505.67	492.667
1503.87	488.667
1502.07	497.556
1500.28	494.667
1498.48	500
1496.68	508.667
1494.88	510.222
1493.08	506.222
1491.28	530
1489.48	518.667
1487.68	541.111
1485.88	553.778
1484.08	561.333
1482.27	570.444
1480.47	605.556
1478.67	614.222
1476.86	652.667
1475.06	692
1473.25	718
1471.45	750.889
1469.64	799.111
1467.84	842.444
1466.03	901.111
1464.23	956.667
1462.42	992.444
1460.61	1031.11
1458.8	1065.56
1456.99	1101.11
1455.18	1144
1453.37	1155.56
1451.56	1179.33
1449.75	1216.22
1447.94	1268.22
1446.13	1297.11
1444.32	1355.78
1442.51	1388
1440.7	1370.89
1438.88	1346
1437.07	1276
1435.26	1181.33
1433.44	1065.56
1431.63	952.222
1429.81	860.444
1427.99	781.556
1426.18	708
1424.36	690.222
1422.54	654
1420.73	622.667
1418.91	629.556
1417.09	586.889
1415.27	570
1413.45	542.889
1411.63	529.778
1409.81	509.778
1407.99	508.444
1406.17	499.556
1404.35	493.556
1402.53	487.778
1400.7	468.889
1398.88	478.222
1397.06	467.778
1395.23	464
1393.41	457.556
1391.58	451.111
1389.76	442.667
1387.93	449.333
1386.11	447.333
1384.28	452.444
1382.45	457.778
1380.62	467.556
1378.8	460.444
1376.97	468.667
1375.14	475.556
1373.31	478.222
1371.48	483.333
1369.65	477.333
1367.82	482.667
1365.99	490.444
1364.16	477.111
1362.32	469.333
1360.49	470.444
1358.66	461.333
1356.82	467.778
1354.99	472.444
1353.16	468
1351.32	474
1349.48	471.111
1347.65	469.778
1345.81	466.444
1343.98	474
1342.14	471.556
1340.3	481.111
1338.46	480.889
1336.62	490
1334.79	496
1332.95	511.556
1331.11	522.667
1329.27	542.444
1327.42	574.444
1325.58	593.555
1323.74	611.111
1321.9	620.222
1320.06	663.778
1318.21	683.556
1316.37	721.556
1314.53	769.778
1312.68	808.445
1310.84	844.444
1308.99	912
1307.15	959.111
1305.3	1007.11
1303.45	1040.89
1301.61	1082.44
1299.76	1062.22
1297.91	1040.22
1296.06	986.444
1294.21	916.889
1292.36	831.778
1290.51	757.778
1288.66	721.556
1286.81	695.778
1284.96	698
1283.11	675.556
1281.26	684.889
1279.4	687.111
1277.55	684
1275.7	688.889
1273.84	704
1271.99	707.556
1270.13	722.889
1268.28	712.889
1266.42	706.222
1264.56	704.667
1262.71	690.889
1260.85	682.889
1258.99	659.111
1257.13	640.889
1255.27	622.667
1253.41	604.667
1251.56	579.778
1249.7	558.889
1247.83	552.889
1245.97	527.778
1244.11	518.667
1242.25	497.556
1240.39	492.889
1238.52	472.667
1236.66	466.889
1234.8	466.222
1232.93	450.889
1231.07	453.556
1229.2	438.889
1227.34	445.778
1225.47	422.889
1223.6	420.889
1221.74	426.444
1219.87	424.889
1218	412.222
1216.13	407.333
1214.26	416.889
1212.39	401.111
1210.53	400.667
1208.65	405.556
1206.78	410
1204.91	399.556
1203.04	407.111
1201.17	403.556
1199.3	402.667
1197.42	401.333
1195.55	401.778
1193.68	401.111
1191.8	398.222
1189.93	395.111
1188.05	400.889
1186.17	392.667
1184.3	401.333
1182.42	400.444
1180.54	399.333
1178.67	404
1176.79	399.556
1174.91	403.111
1173.03	398.444
1171.15	403.333
1169.27	400.222
1167.39	397.778
1165.51	390.444
1163.63	404.667
1161.75	400.889
1159.86	396.889
1157.98	411.556
1156.1	406.889
1154.21	405.778
1152.33	412.889
1150.44	417.556
1148.56	412.444
1146.67	405.556
1144.79	417.778
1142.9	420.444
1141.01	420.222
1139.12	427.333
1137.24	462
1135.35	497.111
1133.46	526.444
1131.57	566.667
1129.68	598
1127.79	611.333
1125.9	580.222
1124.01	568
1122.12	565.778
1120.22	553.333
1118.33	545.111
1116.44	536
1114.54	531.778
1112.65	545.333
1110.75	535.556
1108.86	539.778
1106.96	561.556
1105.07	570.889
1103.17	598.222
1101.27	618.444
1099.38	642.667
1097.48	650.222
1095.58	670.444
1093.68	696.667
1091.78	715.333
1089.88	733.111
1087.98	751.556
1086.08	764.889
1084.18	766
1082.28	772.222
1080.38	779.111
1078.47	770
1076.57	749.778
1074.67	753.778
1072.76	744.222
1070.86	745.333
1068.95	750.667
1067.05	796.444
1065.14	816.222
1063.24	820.667
1061.33	784.667
1059.42	713.111
1057.51	678.889
1055.6	630.222
1053.7	590.667
1051.79	584
1049.88	574.222
1047.97	566.444
1046.06	552.889
1044.14	549.556
1042.23	542.889
1040.32	542.889
1038.41	548
1036.5	540.889
1034.58	533.556
1032.67	533.111
1030.75	542.222
1028.84	539.333
1026.92	534.444
1025.01	528.889
1023.09	535.333
1021.17	534.222
1019.26	536
1017.34	531.333
1015.42	519.111
1013.5	514.889
1011.58	515.778
1009.66	513.333
1007.74	506
1005.82	504
1003.9	504.889
1001.98	491.778
1000.06	496.667
998.134	498.667
996.212	505.778
994.288	502.444
992.364	502.889
990.44	515.333
988.515	531.778
986.589	541.333
984.663	564.667
982.737	572.889
980.81	578
978.883	611.778
976.955	628.444
975.027	627.778
973.098	645.333
971.169	639.556
969.239	632.889
967.308	641.333
965.378	626.444
963.447	618.889
961.516	617.111
959.583	616.889
957.65	632.444
955.718	634.222
953.784	636.667
951.85	631.333
949.916	640.222
947.981	646
946.045	638.667
944.109	675.778
942.173	669.556
940.236	683.556
938.298	669.333
936.36	660.667
934.422	654.667
932.484	644.222
930.544	617.333
928.604	609.111
926.664	604.222
924.724	592.667
922.782	600.889
920.84	599.333
918.898	606
916.955	593.778
915.012	604.667
913.068	604
911.124	590.667
909.18	601.333
907.235	602.444
905.289	613.111
903.343	611.333
901.397	623.111
899.45	625.333
897.502	649.778
895.554	675.333
893.605	692.889
891.657	699.556
889.707	704.222
887.758	704.889
885.807	685.111
883.856	694.222
881.905	685.556
879.953	682.444
878.001	703.333
876.048	735.333
874.094	725.333
872.14	719.556
870.186	715.778
868.232	723.556
866.276	721.556
864.321	700
862.365	713.333
860.408	684.667
858.451	688.222
856.493	666.444
854.535	672
852.576	682.222
850.617	680.667
848.658	684.667
846.698	672
844.737	667.333
842.776	670.444
840.814	656.667
838.852	637.778
836.89	630.889
834.927	608
832.963	598.445
830.999	585.333
829.035	571.556
827.07	551.111
825.105	558.222
823.139	533.333
821.172	528.444
819.206	519.111
817.238	522.444
815.27	506.444
813.301	496
811.333	483.111
809.363	474.667
807.394	464
805.424	462.667
803.453	444.222
801.482	440.889
799.509	436.667
797.538	420.444
795.565	410.222
793.592	408.444
791.618	408.222
789.643	398
787.669	389.778
785.693	390.444
783.718	401.111
781.742	401.778
779.765	398.222
777.788	400
775.811	399.556
773.832	401.333
771.853	409.778
769.875	410.889
767.895	402.444
765.915	399.778
763.934	404.444
761.953	401.333
759.972	393.556
757.99	390.222
756.007	393.556
754.024	386
752.041	397.778
750.056	398.667
748.072	405.778
746.087	402
744.102	403.333
742.116	393.333
740.13	417.556
738.143	408.889
736.155	418.444
734.167	409.556
732.179	415.111
730.19	412.444
728.2	420.889
726.21	423.111
724.22	423.111
722.229	407.778
720.237	416.444
718.246	404.889
716.253	405.111
714.26	389.556
712.267	387.111
710.273	386.889
708.279	391.333
706.284	384.444
704.289	378
702.293	370.222
700.296	376.222
698.3	377.111
696.303	381.556
694.305	362
692.307	365.333
690.307	372
688.308	371.333
686.309	372.222
684.308	384
682.308	371.556
680.306	372.444
678.304	379.778
676.302	376
674.3	378.222
672.296	373.333
670.293	382.444
668.289	383.111
666.284	367.333
664.278	391.111
662.273	391.778
660.266	384.222
658.26	390.889
656.252	398.444
654.244	394.444
652.237	393.556
650.227	398.667
648.218	388
646.209	392.222
644.198	397.333
642.188	412.444
640.177	411.111
638.165	400
636.153	413.556
634.14	410.667
632.128	421.333
630.113	412.889
628.099	421.111
626.085	423.111
624.07	419.556
622.054	433.111
620.038	436.444
618.021	440
616.004	437.556
613.986	438.444
611.968	452.889
609.949	468.444
607.93	464
605.911	464.667
603.891	458.444
601.87	458.444
599.848	452.444
597.827	458.667
595.805	452.889
593.782	448.889
591.759	448.222
589.735	449.333
587.711	451.778
585.687	432.444
583.661	433.333
581.636	435.333
579.609	445.333
577.583	435.556
575.555	438.889
573.527	423.556
571.5	427.333
569.471	420.222
567.441	433.111
565.412	438
563.382	435.778
561.351	440.444
559.32	446
557.289	460.222
555.257	458.889
553.223	461.111
551.19	475.111
549.157	490.222
547.122	506
545.088	523.111
543.053	527.556
541.017	545.778
538.981	577.778
536.943	640.444
534.907	718.667
532.869	866.444
530.831	1070.67
528.792	1503.78
526.752	2216.44
524.713	3293.56
522.673	4291.33
520.632	4469.33
518.591	3774
516.549	2813.56
514.507	1950
512.464	1367.11
510.42	1014
508.377	815.111
506.332	718
504.288	641.111
502.242	608.667
500.196	593.111
498.15	580.667
496.104	577.333
494.056	560.889
492.008	557.556
489.96	557.111
487.911	544.889
485.862	530
483.812	538.222
481.761	538
479.71	541.333
477.659	542.667
475.607	540
473.555	538.889
471.502	523.778
469.448	520.444
467.395	530.222
465.34	526
463.285	526
461.23	527.333
459.174	542
457.118	539.556
455.061	547.556
453.003	530.889
450.945	531.778
448.887	551.556
446.828	554.889
444.768	544.444
442.708	562
440.647	561.333
438.587	558.222
436.525	570
434.463	573.111
432.4	559.333
430.337	585.778
428.274	589.333
426.21	580
424.145	583.111
422.079	593.111
420.014	584.889
417.948	587.778
415.882	595.778
413.814	592
411.746	605.556
409.679	603.778
407.609	606.667
405.54	605.333
403.47	597.778
401.401	610.222
399.329	607.111
397.258	607.778
395.187	611.778
393.114	599.556
391.041	616.222
388.968	596.667
386.895	611.556
384.82	610.667
382.745	612.444
380.67	615.778
378.594	619.333
376.517	632.889
374.44	633.556
372.363	632.222
370.286	642.889
368.207	636.222
366.128	645.111
364.049	634.667
361.969	655.778
359.888	643.333
357.807	657.778
355.725	664.444
353.643	666.444
351.561	669.556
349.477	661.556
347.394	670.667
345.31	654.667
343.226	665.556
341.141	671.333
339.055	679.333
336.968	684
334.882	682
332.795	692.667
330.707	704.222
328.618	701.111
326.53	706.889
324.44	729.778
322.351	737.778
320.26	738.889
318.17	762.444
316.078	764.222
313.987	795.333
311.895	816.222
309.802	834.889
307.708	838
305.614	856.444
303.52	889.556
301.425	873.778
299.329	873.556
297.233	867.556
295.137	853.556
293.039	836.889
290.942	842.444
288.844	844.444
286.745	841.778
284.647	834.667
282.546	843.778
280.446	858.667
278.346	844.222
276.245	838.222
274.143	854.222
272.041	878.667
269.939	854.444
267.835	889.778
265.731	888.222
263.627	890.889
261.522	911.778
259.417	930.667
257.311	926.889
255.204	926.222
253.098	933.333
250.99	944.667
248.882	955.333
246.774	967.778
244.664	973.333
242.555	983.778
240.445	977.111
238.334	1020.44
236.223	1018
234.112	1027.56
232	1024
229.888	1049.56
227.775	1042.89
225.661	1066.44
223.546	1065.78
221.431	1071.11
219.316	1097.33
217.201	1089.56
215.084	1080.67
212.967	1080
210.85	1083.11
208.732	1090.67
206.614	1105.56
204.495	1103.33
202.375	1096.67
200.256	1090.89
198.135	1086.44
196.014	1109.11
193.893	1093.56
191.771	1107.56
189.648	1114.22
187.525	1091.33
185.401	1095.56
183.277	1095.56
181.152	1109.33
179.027	1098.89
176.901	1109.78
174.775	1114.67
172.648	1114
170.521	1129.78
168.393	1144.67
166.265	1147.56
164.136	1170.22
162.007	1200.89
159.876	1215.78
157.746	1234
155.615	1257.33
153.483	1278.22
151.351	1319.78
149.219	1336
147.086	1356.89
144.952	1394.89
142.818	1440.89
140.684	1480
138.548	1507.56
136.413	1545.33
134.276	1578.89
132.139	1626
130.002	1686.67
127.864	1737.33
125.725	1773.11
123.587	1838
121.447	1877.11
119.307	1927.11
117.166	1997.78
115.026	2081.11
112.885	2135.78
110.743	2183.78
108.6	2267.78
106.456	2308
104.313	2339.56
102.169	2347.11
100.023	2294.89
97.8789	2172.67
95.7328	1974.22
93.5869	1761.11
91.4392	1497.33
89.2919	1240.22
87.1447	985.556
84.9959	761.111
