3528.51	131.5
3527.23	138
3525.95	132.5
3524.67	142.5
3523.39	151
3522.1	156
3520.82	148
3519.54	154
3518.26	157
3516.97	160.5
3515.69	147
3514.4	159.5
3513.12	155.5
3511.84	153
3510.55	160.5
3509.26	157
3507.98	166.5
3506.69	164.5
3505.41	170.5
3504.12	179
3502.83	159.5
3501.54	179.5
3500.26	173.5
3498.97	184.5
3497.68	179
3496.39	174.5
3495.1	182.5
3493.81	189.5
3492.52	195.5
3491.23	189
3489.94	195
3488.65	169
3487.36	209.5
3486.07	195
3484.78	210
3483.49	209.5
3482.19	209.5
3480.9	211
3479.61	218
3478.31	225.5
3477.02	226
3475.73	227.5
3474.43	237
3473.14	218
3471.84	224.5
3470.54	231.5
3469.25	218
3467.95	228
3466.66	239.5
3465.36	244
3464.06	249.5
3462.76	236
3461.46	242
3460.17	247
3458.87	257
3457.57	237
3456.27	244
3454.97	245
3453.67	259
3452.37	259
3451.07	263
3449.77	261.5
3448.47	276
3447.16	272.5
3445.86	275
3444.56	274
3443.26	288
3441.95	282
3440.65	288.5
3439.35	299
3438.04	290
3436.74	312
3435.43	314
3434.13	310.5
3432.82	314.5
3431.52	328
3430.21	339.5
3428.9	345
3427.6	341.5
3426.29	362
3424.98	351
3423.67	366.5
3422.36	364
3421.06	367
3419.75	377
3418.44	383.5
3417.13	385.5
3415.82	383.5
3414.51	413.5
3413.2	400
3411.88	411
3410.57	396
3409.26	410.5
3407.95	415.5
3406.64	418.5
3405.32	424.5
3404.01	410
3402.7	416.5
3401.38	439
3400.07	428.5
3398.75	437
3397.44	452.5
3396.12	449.5
3394.81	461.5
3393.49	457
3392.18	462
3390.86	471
3389.54	471.5
3388.23	474
3386.91	476.5
3385.59	475
3384.27	482
3382.95	488
3381.63	485.5
3380.31	491
3378.99	500
3377.67	497.5
3376.35	513
3375.03	504.5
3373.71	514
3372.39	516
3371.07	518.5
3369.75	526
3368.42	533.5
3367.1	523.5
3365.78	537
3364.45	539.5
3363.13	549.5
3361.81	539.5
3360.48	553
3359.16	530
3357.83	553.5
3356.51	554.5
3355.18	571
3353.85	577
3352.53	568.5
3351.2	585
3349.87	572
3348.54	585.5
3347.22	583.5
3345.89	587
3344.56	582.5
3343.23	602
3341.9	592
3340.57	593
3339.24	583.5
3337.91	589
3336.58	586
3335.25	588.5
3333.92	598
3332.58	598
3331.25	602
3329.92	608.5
3328.59	622.5
3327.25	618.5
3325.92	634
3324.58	612
3323.25	626
3321.92	631.5
3320.58	625.5
3319.25	638.5
3317.91	632
3316.57	652.5
3315.24	646.5
3313.9	655.5
3312.56	647.5
3311.23	660
3309.89	659
3308.55	669
3307.21	648.5
3305.87	676
3304.53	659.5
3303.19	678.5
3301.85	668.5
3300.51	674
3299.17	687.5
3297.83	678.5
3296.49	691
3295.15	688.5
3293.81	674.5
3292.46	696
3291.12	703
3289.78	691.5
3288.43	695.5
3287.09	710
3285.75	700
3284.4	711.5
3283.06	728
3281.71	712.5
3280.37	724
3279.02	718
3277.67	706
3276.33	720
3274.98	729
3273.63	733
3272.28	737
3270.94	748.5
3269.59	758
3268.24	767.5
3266.89	769.5
3265.54	773
3264.19	791
3262.84	801.5
3261.49	809
3260.14	825
3258.79	815
3257.44	845.5
3256.08	869
3254.73	884
3253.38	899.5
3252.03	919
3250.67	930
3249.32	954.5
3247.96	972
3246.61	1006.5
3245.26	1032.5
3243.9	1060
3242.54	1089.5
3241.19	1106.5
3239.83	1142.5
3238.48	1179
3237.12	1219
3235.76	1242
3234.41	1278
3233.05	1272.5
3231.69	1311
3230.33	1326
3228.97	1370.5
3227.61	1410.5
3226.25	1421.5
3224.89	1457.5
3223.53	1458.5
3222.17	1512.5
3220.81	1512.5
3219.45	1542
3218.09	1564
3216.72	1563
3215.36	1619
3214	1579.5
3212.63	1614.5
3211.27	1625
3209.91	1617
3208.54	1654
3207.18	1662
3205.81	1683.5
3204.45	1666
3203.08	1684.5
3201.71	1672.5
3200.35	1736
3198.98	1732.5
3197.61	1721
3196.25	1745
3194.88	1756.5
3193.51	1754.5
3192.14	1751
3190.77	1755
3189.4	1784
3188.03	1792.5
3186.66	1808
3185.29	1808
3183.92	1766
3182.55	1812
3181.18	1812.5
3179.81	1844.5
3178.44	1864.5
3177.06	1856.5
3175.69	1871
3174.32	1901
3172.94	1883
3171.57	1895.5
3170.2	1922.5
3168.82	1965
3167.45	1982
3166.07	1966.5
3164.69	1973.5
3163.32	1987
3161.94	2019.5
3160.56	2015
3159.19	2058
3157.81	2084
3156.43	2080.5
3155.05	2077
3153.67	2098
3152.3	2133
3150.92	2129.5
3149.54	2144
3148.16	2154.5
3146.78	2211.5
3145.4	2200.5
3144.01	2194
3142.63	2235.5
3141.25	2232
3139.87	2246
3138.49	2262.5
3137.1	2269.5
3135.72	2283
3134.34	2310.5
3132.95	2318.5
3131.57	2342.5
3130.18	2365.5
3128.8	2383
3127.41	2400.5
3126.03	2377
3124.64	2384.5
3123.25	2446
3121.87	2444
3120.48	2431.5
3119.09	2451.5
3117.7	2482.5
3116.32	2483
3114.93	2501
3113.54	2520
3112.15	2530.5
3110.76	2522.5
3109.37	2561
3107.98	2561
3106.59	2572.5
3105.2	2590.5
3103.8	2592
3102.41	2594.5
3101.02	2647
3099.63	2646
3098.23	2585
3096.84	2683.5
3095.45	2653
3094.05	2664.5
3092.66	2697
3091.26	2683.5
3089.87	2702.5
3088.47	2677.5
3087.08	2729.5
3085.68	2748
3084.28	2739.5
3082.89	2703
3081.49	2722.5
3080.09	2741
3078.69	2755.5
3077.3	2759.5
3075.9	2727.5
3074.5	2773.5
3073.1	2777.5
3071.7	2765.5
3070.3	2819
3068.9	2814
3067.5	2825
3066.09	2855
3064.69	2806
3063.29	2833
3061.89	2867.5
3060.48	2880
3059.08	2866
3057.68	2884
3056.27	2887
3054.87	2884
3053.46	2902
3052.06	2910
3050.65	2962
3049.25	2959.5
3047.84	2983
3046.44	2948
3045.03	2981.5
3043.62	2992
3042.21	2949.5
3040.81	2963
3039.4	3000.5
3037.99	3013.5
3036.58	3030.5
3035.17	3014.5
3033.76	3012
3032.35	3049.5
3030.94	3084.5
3029.53	3050
3028.12	3055.5
3026.71	3026
3025.29	3065.5
3023.88	3129.5
3022.47	3086
3021.06	3086.5
3019.64	3068
3018.23	3081.5
3016.82	3077
3015.4	3075
3013.99	3095
3012.57	3083.5
3011.15	3159
3009.74	3106.5
3008.32	3111.5
3006.91	3124
3005.49	3134
3004.07	3134
3002.65	3140
3001.24	3172
2999.82	3189
2998.4	3228.5
2996.98	3215
2995.56	3237.5
2994.14	3238
2992.72	3309.5
2991.3	3241
2989.88	3305
2988.46	3301.5
2987.03	3277
2985.61	3348.5
2984.19	3320
2982.77	3349.5
2981.34	3358.5
2979.92	3393.5
2978.49	3414
2977.07	3405
2975.65	3450
2974.22	3471.5
2972.79	3504
2971.37	3503
2969.94	3497
2968.52	3518
2967.09	3580
2965.66	3589
2964.23	3572
2962.81	3558
2961.38	3625.5
2959.95	3622
2958.52	3625.5
2957.09	3651.5
2955.66	3653.5
2954.23	3652
2952.8	3663
2951.37	3666
2949.94	3708
2948.5	3674
2947.07	3743
2945.64	3722
2944.21	3751
2942.77	3787.5
2941.34	3797
2939.91	3807
2938.47	3786
2937.04	3791.5
2935.6	3790.5
2934.17	3803.5
2932.73	3806
2931.29	3878
2929.86	3878
2928.42	3878.5
2926.98	3931
2925.55	3956.5
2924.11	3929
2922.67	3962
2921.23	3966
2919.79	4008.5
2918.35	3993
2916.91	4021
2915.47	3978.5
2914.03	4020
2912.59	4064
2911.15	4051.5
2909.71	4026.5
2908.26	4052.5
2906.82	4072.5
2905.38	4084
2903.94	4104.5
2902.49	4089
2901.05	4094.5
2899.6	4104
2898.16	4125.5
2896.71	4148.5
2895.27	4165.5
2893.82	4198
2892.38	4166
2890.93	4182
2889.48	4118
2888.03	4160
2886.59	4158.5
2885.14	4191.5
2883.69	4182.5
2882.24	4173.5
2880.79	4204.5
2879.34	4222.5
2877.89	4161
2876.44	4185
2874.99	4218.5
2873.54	4225.5
2872.09	4185
2870.64	4203
2869.18	4205.5
2867.73	4257
2866.28	4238.5
2864.83	4179.5
2863.37	4240
2861.92	4240
2860.46	4243
2859.01	4240
2857.55	4270.5
2856.1	4230
2854.64	4214
2853.19	4223
2851.73	4227
2850.27	4263.5
2848.81	4246.5
2847.36	4217.5
2845.9	4207.5
2844.44	4190
2842.98	4180.5
2841.52	4129.5
2840.06	4127.5
2838.6	4113
2837.14	4081.5
2835.68	4083.5
2834.22	4033.5
2832.76	4038
2831.3	4021
2829.83	3994.5
2828.37	3988.5
2826.91	3972
2825.44	3963
2823.98	3951
2822.52	3946.5
2821.05	3904.5
2819.59	3929.5
2818.12	3928.5
2816.66	3887
2815.19	3911
2813.72	3858.5
2812.26	3835.5
2810.79	3875.5
2809.32	3864.5
2807.85	3857
2806.38	3836
2804.92	3814.5
2803.45	3852
2801.98	3822.5
2800.51	3831
2799.04	3784
2797.57	3816
2796.1	3781
2794.62	3789.5
2793.15	3821.5
2791.68	3813.5
2790.21	3789
2788.73	3792
2787.26	3810
2785.79	3763.5
2784.31	3713.5
2782.84	3767.5
2781.36	3774.5
2779.89	3849.5
2778.41	3808.5
2776.94	3838
2775.46	3799
2773.99	3807
2772.51	3827.5
2771.03	3840.5
2769.55	3871
2768.07	3820
2766.6	3841.5
2765.12	3882.5
2763.64	3877.5
2762.16	3825.5
2760.68	3868
2759.2	3904.5
2757.72	3855
2756.24	3812.5
2754.75	3830.5
2753.27	3843
2751.79	3846.5
2750.31	3823
2748.82	3827.5
2747.34	3839.5
2745.86	3810
2744.37	3865.5
2742.89	3791.5
2741.4	3809
2739.92	3819.5
2738.43	3818.5
2736.94	3823.5
2735.46	3827
2733.97	3846.5
2732.48	3841
2731	3844
2729.51	3833
2728.02	3804
2726.53	3819
2725.04	3821.5
2723.55	3811.5
2722.06	3822
2720.57	3800
2719.08	3839
2717.59	3856.5
2716.1	3865.5
2714.61	3815
2713.11	3843
2711.62	3851
2710.13	3825
2708.64	3844
2707.14	3857
2705.65	3826.5
2704.15	3821
2702.66	3818
2701.16	3800
2699.67	3789
2698.17	3780
2696.67	3769.5
2695.18	3765.5
2693.68	3772
2692.18	3790.5
2690.69	3730.5
2689.19	3740
2687.69	3722
2686.19	3693
2684.69	3696
2683.19	3761
2681.69	3700
2680.19	3671
2678.69	3690
2677.19	3676
2675.68	3669.5
2674.18	3644
2672.68	3674.5
2671.18	3686.5
2669.67	3678.5
2668.17	3648.5
2666.66	3625
2665.16	3638.5
2663.66	3668
2662.15	3666
2660.64	3642
2659.14	3649.5
2657.63	3631.5
2656.13	3644
2654.62	3613
2653.11	3657.5
2651.6	3592
2650.09	3578
2648.58	3607
2647.08	3568
2645.57	3597
2644.06	3576
2642.55	3554
2641.04	3560
2639.52	3585.5
2638.01	3530.5
2636.5	3557.5
2634.99	3513
2633.48	3519.5
2631.96	3478.5
2630.45	3465.5
2628.94	3472.5
2627.42	3466.5
2625.91	3436.5
2624.39	3471
2622.88	3493.5
2621.36	3499.5
2619.85	3451
2618.33	3454
2616.81	3477.5
2615.3	3482.5
2613.78	3459.5
2612.26	3441.5
2610.74	3440.5
2609.22	3430.5
2607.7	3408
2606.18	3439
2604.66	3403
2603.14	3400.5
2601.62	3413.5
2600.1	3363
2598.58	3333.5
2597.06	3335
2595.54	3357.5
2594.01	3344
2592.49	3306.5
2590.97	3293
2589.44	3312.5
2587.92	3312.5
2586.39	3320.5
2584.87	3288.5
2583.34	3286
2581.82	3316.5
2580.29	3288
2578.76	3247
2577.24	3267
2575.71	3260.5
2574.18	3219
2572.65	3223.5
2571.13	3247
2569.6	3257
2568.07	3222.5
2566.54	3207.5
2565.01	3229.5
2563.48	3204
2561.95	3218
2560.42	3210
2558.88	3184.5
2557.35	3195.5
2555.82	3184
2554.29	3194
2552.75	3168.5
2551.22	3169
2549.69	3158.5
2548.15	3172.5
2546.62	3186
2545.08	3149
2543.55	3117.5
2542.01	3109.5
2540.47	3115.5
2538.94	3080.5
2537.4	3113
2535.86	3077
2534.33	3086.5
2532.79	3084.5
2531.25	3046.5
2529.71	3040
2528.17	3088.5
2526.63	3018.5
2525.09	2998.5
2523.55	3002.5
2522.01	2998.5
2520.47	2988
2518.92	2951
2517.38	3042
2515.84	2962.5
2514.3	2994.5
2512.75	2965.5
2511.21	2954
2509.67	2947.5
2508.12	2964.5
2506.58	2924.5
2505.03	2921.5
2503.49	2908
2501.94	2950.5
2500.39	2901
2498.85	2904.5
2497.3	2870.5
2495.75	2867
2494.2	2843.5
2492.65	2850
2491.11	2806
2489.56	2794
2488.01	2822
2486.46	2807
2484.91	2764.5
2483.36	2773
2481.8	2765.5
2480.25	2785.5
2478.7	2787
2477.15	2764
2475.6	2774
2474.04	2728
2472.49	2742.5
2470.93	2700.5
2469.38	2712.5
2467.83	2657.5
2466.27	2680
2464.71	2691
2463.16	2650
2461.6	2635.5
2460.05	2630
2458.49	2618
2456.93	2642
2455.37	2607
2453.81	2583
2452.26	2591.5
2450.7	2598
2449.14	2580.5
2447.58	2514.5
2446.02	2582.5
2444.46	2571.5
2442.9	2530
2441.33	2542.5
2439.77	2527.5
2438.21	2506.5
2436.65	2512
2435.08	2515
2433.52	2496
2431.96	2455
2430.39	2480
2428.83	2498
2427.26	2492
2425.7	2476.5
2424.13	2449
2422.56	2443
2421	2420
2419.43	2400.5
2417.86	2424.5
2416.3	2427
2414.73	2390
2413.16	2423.5
2411.59	2444
2410.02	2406.5
2408.45	2344.5
2406.88	2412
2405.31	2387.5
2403.74	2395.5
2402.17	2395.5
2400.6	2389
2399.02	2371.5
2397.45	2349.5
2395.88	2359.5
2394.3	2338.5
2392.73	2336
2391.16	2339.5
2389.58	2349
2388.01	2333
2386.43	2352.5
2384.86	2333.5
2383.28	2310.5
2381.7	2320
2380.13	2342
2378.55	2339.5
2376.97	2339.5
2375.39	2325.5
2373.81	2294
2372.23	2292
2370.65	2305.5
2369.07	2317
2367.49	2284
2365.91	2261
2364.33	2295
2362.75	2242.5
2361.17	2237.5
2359.59	2240.5
2358.01	2232.5
2356.42	2224
2354.84	2238
2353.25	2217
2351.67	2230
2350.09	2218.5
2348.5	2237.5
2346.92	2216
2345.33	2230
2343.74	2189
2342.16	2242.5
2340.57	2259
2338.98	2217.5
2337.39	2186.5
2335.81	2161
2334.22	2166
2332.63	2152
2331.04	2175.5
2329.45	2167
2327.86	2145
2326.27	2187
2324.68	2175
2323.09	2113.5
2321.49	2114
2319.9	2124
2318.31	2108.5
2316.72	2131.5
2315.12	2101.5
2313.53	2109
2311.93	2113
2310.34	2079
2308.74	2054
2307.15	2102
2305.55	2067
2303.96	2040.5
2302.36	2059
2300.76	2047
2299.17	2050.5
2297.57	2039
2295.97	2030
2294.37	2002
2292.77	2017
2291.17	1989
2289.57	2004
2287.97	1995.5
2286.37	1980
2284.77	1974.5
2283.17	1954.5
2281.57	1966
2279.96	1963.5
2278.36	1945.5
2276.76	1961
2275.15	1950
2273.55	1937.5
2271.95	1931
2270.34	1909
2268.74	1914
2267.13	1897.5
2265.52	1930
2263.92	1911
2262.31	1893
2260.7	1886.5
2259.1	1907.5
2257.49	1889.5
2255.88	1876.5
2254.27	1861
2252.66	1847
2251.05	1878
2249.44	1872
2247.83	1864
2246.22	1850
2244.61	1851
2243	1865.5
2241.39	1874
2239.77	1839.5
2238.16	1853.5
2236.55	1795.5
2234.93	1810.5
2233.32	1786
2231.7	1802
2230.09	1783
2228.47	1773
2226.86	1729
2225.24	1743
2223.63	1743
2222.01	1727.5
2220.39	1751
2218.77	1743
2217.16	1729.5
2215.54	1731
2213.92	1703
2212.3	1722
2210.68	1707
2209.06	1705.5
2207.44	1681
2205.82	1661
2204.19	1681.5
2202.57	1661
2200.95	1667
2199.33	1667.5
2197.7	1647
2196.08	1637.5
2194.46	1643
2192.83	1661
2191.21	1641
2189.58	1651.5
2187.96	1618.5
2186.33	1617.5
2184.7	1647.5
2183.08	1615
2181.45	1607
2179.82	1599
2178.19	1596
2176.57	1592.5
2174.94	1604
2173.31	1599.5
2171.68	1589.5
2170.05	1554
2168.42	1556.5
2166.79	1556.5
2165.16	1545
2163.52	1549.5
2161.89	1567.5
2160.26	1533
2158.63	1525.5
2156.99	1525
2155.36	1515.5
2153.73	1516
2152.09	1528.5
2150.46	1513.5
2148.82	1489
2147.18	1492.5
2145.55	1494.5
2143.91	1475.5
2142.27	1482.5
2140.64	1464
2139	1480
2137.36	1454
2135.72	1444.5
2134.08	1455
2132.44	1435
2130.8	1433
2129.16	1425.5
2127.52	1409.5
2125.88	1407
2124.24	1390
2122.6	1375.5
2120.95	1370.5
2119.31	1384
2117.67	1365
2116.02	1371.5
2114.38	1366.5
2112.74	1341.5
2111.09	1364.5
2109.45	1340.5
2107.8	1365.5
2106.15	1353
2104.51	1331
2102.86	1331
2101.21	1324
2099.56	1340
2097.92	1322
2096.27	1316.5
2094.62	1300.5
2092.97	1310.5
2091.32	1297
2089.67	1298
2088.02	1297
2086.37	1280.5
2084.72	1307
2083.06	1293.5
2081.41	1297
2079.76	1278.5
2078.1	1295.5
2076.45	1297.5
2074.8	1280.5
2073.14	1260.5
2071.49	1291
2069.83	1275
2068.18	1248
2066.52	1277
2064.86	1263.5
2063.21	1253
2061.55	1265
2059.89	1264
2058.23	1270.5
2056.57	1229.5
2054.92	1252
2053.26	1242
2051.6	1248
2049.94	1223.5
2048.27	1202.5
2046.61	1223
2044.95	1226.5
2043.29	1216
2041.63	1214.5
2039.97	1206
2038.3	1194
2036.64	1174.5
2034.97	1195.5
2033.31	1171
2031.64	1174.5
2029.98	1176
2028.31	1142
2026.65	1133
2024.98	1172
2023.31	1137
2021.65	1131
2019.98	1127
2018.31	1119
2016.64	1099
2014.97	1085
2013.3	1118.5
2011.63	1113
2009.96	1105
2008.29	1081
2006.62	1087
2004.95	1095
2003.28	1081
2001.6	1088
1999.93	1071
1998.26	1078.5
1996.58	1076
1994.91	1053
1993.24	1073.5
1991.56	1071
1989.89	1054
1988.21	1048.5
1986.53	1052.5
1984.86	1036
1983.18	1038.5
1981.5	1038
1979.82	1036
1978.15	1018
1976.47	1043
1974.79	1033.5
1973.11	1022.5
1971.43	1019
1969.75	1015.5
1968.07	1009
1966.38	996
1964.7	988.5
1963.02	992
1961.34	965.5
1959.66	998
1957.97	992.5
1956.29	995
1954.6	982
1952.92	952
1951.23	988.5
1949.55	951
1947.86	945.5
1946.18	960.5
1944.49	961
1942.8	952.5
1941.11	926.5
1939.43	939
1937.74	933
1936.05	935.5
1934.36	925
1932.67	947
1930.98	922
1929.29	928.5
1927.6	909.5
1925.91	905.5
1924.21	900
1922.52	887.5
1920.83	885
1919.14	894.5
1917.44	907.5
1915.75	897.5
1914.05	868.5
1912.36	892.5
1910.66	873.5
1908.97	865.5
1907.27	873
1905.58	874
1903.88	871.5
1902.18	874.5
1900.48	854.5
1898.79	844.5
1897.09	860.5
1895.39	854
1893.69	853
1891.99	807.5
1890.29	839
1888.59	836.5
1886.89	823.5
1885.18	819.5
1883.48	799.5
1881.78	815.5
1880.08	809
1878.37	799.5
1876.67	783
1874.96	801
1873.26	786.5
1871.55	790
1869.85	774
1868.14	767.5
1866.44	784.5
1864.73	758
1863.02	779.5
1861.32	762.5
1859.61	765.5
1857.9	759
1856.19	756.5
1854.48	764
1852.77	756.5
1851.06	747.5
1849.35	751.5
1847.64	738
1845.93	754.5
1844.21	757
1842.5	746
1840.79	726.5
1839.08	741.5
1837.36	718.5
1835.65	727.5
1833.93	724.5
1832.22	709.5
1830.5	707
1828.79	722
1827.07	715.5
1825.36	710.5
1823.64	722
1821.92	699
1820.2	701.5
1818.48	704.5
1816.77	700
1815.05	684
1813.33	690.5
1811.61	697.5
1809.89	702.5
1808.16	694
1806.44	670
1804.72	680
1803	689.5
1801.28	674
1799.55	678
1797.83	679
1796.11	659.5
1794.38	662.5
1792.66	652.5
1790.93	683.5
1789.21	646.5
1787.48	652
1785.75	648.5
1784.03	648
1782.3	638
1780.57	654.5
1778.84	647.5
1777.11	638.5
1775.38	630.5
1773.66	627
1771.93	639
1770.19	629
1768.46	644
1766.73	641.5
1765	626.5
1763.27	648
1761.54	667.5
1759.8	671.5
1758.07	664.5
1756.34	675
1754.6	677
1752.87	690.5
1751.13	687
1749.4	692
1747.66	708
1745.92	711.5
1744.19	704
1742.45	683
1740.71	681
1738.97	674.5
1737.23	678
1735.49	662.5
1733.75	633.5
1732.01	628
1730.27	627.5
1728.53	638
1726.79	647
1725.05	604.5
1723.31	615
1721.57	604.5
1719.82	601
1718.08	592
1716.34	586
1714.59	576
1712.85	574
1711.1	581.5
1709.36	571.5
1707.61	582
1705.86	565.5
1704.12	564
1702.37	565.5
1700.62	557.5
1698.87	574
1697.12	552.5
1695.37	552.5
1693.62	541.5
1691.87	561
1690.12	543.5
1688.37	573.5
1686.62	535
1684.87	548
1683.12	539
1681.36	542.5
1679.61	553
1677.86	564.5
1676.1	557.5
1674.35	580.5
1672.59	578
1670.84	605.5
1669.08	617.5
1667.33	656
1665.57	677
1663.81	730.5
1662.06	767.5
1660.3	768.5
1658.54	823
1656.78	843.5
1655.02	814.5
1653.26	800
1651.5	760.5
1649.74	708
1647.98	659.5
1646.22	631
1644.46	600
1642.7	590.5
1640.93	572.5
1639.17	563
1637.41	537.5
1635.64	542
1633.88	529.5
1632.11	541.5
1630.35	517.5
1628.58	501
1626.81	498.5
1625.05	499.5
1623.28	499.5
1621.51	482
1619.75	490
1617.98	489.5
1616.21	473.5
1614.44	497.5
1612.67	484.5
1610.9	476.5
1609.13	462
1607.36	472
1605.58	476
1603.81	482
1602.04	476.5
1600.27	477
1598.49	458
1596.72	471.5
1594.95	449
1593.17	482.5
1591.4	466.5
1589.62	455
1587.84	485.5
1586.07	467.5
1584.29	466
1582.51	458
1580.74	465
1578.96	456.5
1577.18	467
1575.4	470.5
1573.62	463.5
1571.84	455.5
1570.06	459.5
1568.28	445
1566.5	441
1564.72	432.5
1562.93	452.5
1561.15	433
1559.37	441
1557.58	452.5
1555.8	456
1554.02	457.5
1552.23	438.5
1550.45	432.5
1548.66	447.5
1546.87	445.5
1545.09	441
1543.3	444.5
1541.51	446
1539.72	432
1537.94	428.5
1536.15	434.5
1534.36	429
1532.57	438
1530.78	441
1528.99	429
1527.2	441
1525.4	426.5
1523.61	432.5
1521.82	409
1520.03	429
1518.23	434
1516.44	431.5
1514.65	435.5
1512.85	440
1511.06	439.5
1509.26	441.5
1507.46	447
1505.67	455
1503.87	438.5
1502.07	453
1500.28	455
1498.48	451.5
1496.68	439.5
1494.88	453.5
1493.08	459.5
1491.28	468.5
1489.48	485.5
1487.68	486
1485.88	503
1484.08	523.5
1482.27	530
1480.47	543.5
1478.67	571.5
1476.86	583.5
1475.06	629.5
1473.25	662.5
1471.45	691.5
1469.64	746
1467.84	797
1466.03	841
1464.23	872
1462.42	930
1460.61	973
1458.8	1022.5
1456.99	1047.5
1455.18	1064.5
1453.37	1103
1451.56	1109
1449.75	1167.5
1447.94	1213.5
1446.13	1218
1444.32	1296.5
1442.51	1326.5
1440.7	1301.5
1438.88	1251.5
1437.07	1199
1435.26	1075.5
1433.44	1006
1431.63	890
1429.81	821
1427.99	720
1426.18	671.5
1424.36	633
1422.54	614
1420.73	579
1418.91	572.5
1417.09	547.5
1415.27	529
1413.45	497.5
1411.63	498.5
1409.81	479
1407.99	456.5
1406.17	470.5
1404.35	451
1402.53	456
1400.7	442
1398.88	443.5
1397.06	424
1395.23	423
1393.41	421
1391.58	417.5
1389.76	422
1387.93	411
1386.11	411
1384.28	420.5
1382.45	430
1380.62	422.5
1378.8	413.5
1376.97	435
1375.14	447
1373.31	435
1371.48	459.5
1369.65	445
1367.82	449.5
1365.99	441
1364.16	444
1362.32	434
1360.49	441.5
1358.66	420.5
1356.82	452
1354.99	432
1353.16	436
1351.32	432
1349.48	425.5
1347.65	427
1345.81	431.5
1343.98	432.5
1342.14	440
1340.3	468.5
1338.46	446
1336.62	456.5
1334.79	469
1332.95	474
1331.11	482
1329.27	504
1327.42	525
1325.58	538.5
1323.74	554
1321.9	589.5
1320.06	625
1318.21	663.5
1316.37	680.5
1314.53	697.5
1312.68	761
1310.84	809
1308.99	844.5
1307.15	912.5
1305.3	939
1303.45	996.5
1301.61	1003
1299.76	1018
1297.91	1003
1296.06	962.5
1294.21	874
1292.36	797
1290.51	737
1288.66	706
1286.81	675
1284.96	654
1283.11	660
1281.26	642.5
1279.4	641
1277.55	659
1275.7	678.5
1273.84	661.5
1271.99	662
1270.13	671.5
1268.28	679
1266.42	671
1264.56	660.5
1262.71	650
1260.85	634.5
1258.99	607
1257.13	619.5
1255.27	590
1253.41	571
1251.56	556
1249.7	541
1247.83	521
1245.97	498
1244.11	484
1242.25	472
1240.39	453.5
1238.52	452
1236.66	421
1234.8	431.5
1232.93	415
1231.07	415
1229.2	428.5
1227.34	409
1225.47	408.5
1223.6	407.5
1221.74	388
1219.87	401.5
1218	394.5
1216.13	395
1214.26	386.5
1212.39	388.5
1210.53	383
1208.65	374
1206.78	358.5
1204.91	374.5
1203.04	378.5
1201.17	370.5
1199.3	369
1197.42	375.5
1195.55	393
1193.68	373.5
1191.8	368
1189.93	384
1188.05	380.5
1186.17	382.5
1184.3	368
1182.42	383
1180.54	375.5
1178.67	391
1176.79	390
1174.91	397.5
1173.03	381
1171.15	383.5
1169.27	366
1167.39	384
1165.51	376
1163.63	383.5
1161.75	354.5
1159.86	376
1157.98	390.5
1156.1	386
1154.21	393.5
1152.33	388.5
1150.44	390.5
1148.56	387.5
1146.67	388
1144.79	390.5
1142.9	408.5
1141.01	414
1139.12	425.5
1137.24	442.5
1135.35	488
1133.46	518
1131.57	562
1129.68	581.5
1127.79	578
1125.9	572
1124.01	568
1122.12	540
1120.22	529
1118.33	516
1116.44	529
1114.54	494
1112.65	506
1110.75	507.5
1108.86	524
1106.96	528.5
1105.07	557.5
1103.17	566
1101.27	596.5
1099.38	615.5
1097.48	627.5
1095.58	649.5
1093.68	678
1091.78	682.5
1089.88	717.5
1087.98	720.5
1086.08	694
1084.18	726
1082.28	757.5
1080.38	730
1078.47	746
1076.57	738.5
1074.67	716
1072.76	716.5
1070.86	715
1068.95	725.5
1067.05	780
1065.14	785.5
1063.24	791
1061.33	766.5
1059.42	699.5
1057.51	651.5
1055.6	598
1053.7	586
1051.79	576.5
1049.88	556.5
1047.97	559
1046.06	529
1044.14	524
1042.23	532
1040.32	529
1038.41	515
1036.5	519
1034.58	519.5
1032.67	525.5
1030.75	515.5
1028.84	532.5
1026.92	521.5
1025.01	510
1023.09	514.5
1021.17	520
1019.26	507
1017.34	493
1015.42	502
1013.5	516.5
1011.58	501
1009.66	485
1007.74	486
1005.82	488
1003.9	471
1001.98	482
1000.06	469
998.134	478.5
996.212	500.5
994.288	494
992.364	488.5
990.44	498
988.515	528
986.589	527.5
984.663	565.5
982.737	574.5
980.81	575
978.883	603.5
976.955	617.5
975.027	611.5
973.098	632
971.169	640
969.239	635
967.308	617
965.378	627
963.447	605.5
961.516	620
959.583	626.5
957.65	624.5
955.718	612
953.784	635.5
951.85	640.5
949.916	631.5
947.981	642
946.045	653
944.109	653.5
942.173	671
940.236	652
938.298	663
936.36	662
934.422	635
932.484	631.5
930.544	610
928.604	586
926.664	595
924.724	584
922.782	558
920.84	589
918.898	588
916.955	572.5
915.012	597
913.068	578
911.124	575.5
909.18	592
907.235	589
905.289	570
903.343	591
901.397	590
899.45	609.5
897.502	625.5
895.554	658
893.605	685.5
891.657	698
889.707	677.5
887.758	669
885.807	665
883.856	663
881.905	683.5
879.953	675.5
878.001	679
876.048	699.5
874.094	694
872.14	689
870.186	705
868.232	688.5
866.276	712
864.321	670.5
862.365	719.5
860.408	679.5
858.451	679.5
856.493	666
854.535	642.5
852.576	656.5
850.617	658
848.658	653
846.698	669.5
844.737	664.5
842.776	651.5
840.814	645.5
838.852	633.5
836.89	624
834.927	597
832.963	591
830.999	580
829.035	548
827.07	567.5
825.105	541.5
823.139	524
821.172	505.5
819.206	503.5
817.238	502.5
815.27	486.5
813.301	486.5
811.333	475.5
809.363	466
807.394	448
805.424	469.5
803.453	444
801.482	435.5
799.509	427
797.538	401
795.565	398.5
793.592	416.5
791.618	397.5
789.643	397
787.669	386.5
785.693	394
783.718	395
781.742	392.5
779.765	387
777.788	394.5
775.811	405
773.832	386.5
771.853	401.5
769.875	400
767.895	385
765.915	381
763.934	395.5
761.953	391.5
759.972	395.5
757.99	400
756.007	394.5
754.024	393.5
752.041	373.5
750.056	387
748.072	397.5
746.087	398
744.102	399.5
742.116	414.5
740.13	410
738.143	402
736.155	387
734.167	400
732.179	406
730.19	421
728.2	419
726.21	408.5
724.22	401.5
722.229	397.5
720.237	402
718.246	392.5
716.253	400
714.26	387
712.267	392.5
710.273	388.5
708.279	393.5
706.284	372
704.289	388
702.293	369.5
700.296	368
698.3	378.5
696.303	375.5
694.305	363.5
692.307	370
690.307	372.5
688.308	377.5
686.309	356.5
684.308	370
682.308	379
680.306	383.5
678.304	367.5
676.302	373.5
674.3	369
672.296	377
670.293	381
668.289	383.5
666.284	373
664.278	380.5
662.273	380
660.266	388.5
658.26	389.5
656.252	376.5
654.244	392
652.237	411.5
650.227	391.5
648.218	397
646.209	395
644.198	383
642.188	399.5
640.177	410
638.165	410.5
636.153	408.5
634.14	416.5
632.128	423
630.113	410.5
628.099	429
626.085	436
624.07	436
622.054	425
620.038	427.5
618.021	443
616.004	432.5
613.986	433.5
611.968	450.5
609.949	455.5
607.93	457.5
605.911	457.5
603.891	462
601.87	458.5
599.848	458.5
597.827	452.5
595.805	440
593.782	441
591.759	420.5
589.735	433
587.711	452.5
585.687	440.5
583.661	419
581.636	446
579.609	439
577.583	423.5
575.555	446
573.527	426.5
571.5	443.5
569.471	432.5
567.441	436
565.412	424
563.382	443
561.351	431.5
559.32	452
557.289	440
555.257	454.5
553.223	470.5
551.19	481.5
549.157	487.5
547.122	500.5
545.088	513
543.053	522.5
541.017	562
538.981	598.5
536.943	638.5
534.907	730
532.869	892.5
530.831	1122.5
528.792	1535.5
526.752	2306.5
524.713	3413
522.673	4481
520.632	4714.5
518.591	3981
516.549	2978
514.507	2067.5
512.464	1432.5
510.42	1052.5
508.377	837.5
506.332	718.5
504.288	677.5
502.242	628
500.196	591.5
498.15	590
496.104	565
494.056	560.5
492.008	571.5
489.96	554
487.911	542
485.862	549.5
483.812	550.5
481.761	531.5
479.71	553.5
477.659	527.5
475.607	567.5
473.555	522
471.502	538.5
469.448	520
467.395	522.5
465.34	536.5
463.285	527
461.23	533
459.174	526.5
457.118	524
455.061	544.5
453.003	545
450.945	535.5
448.887	561.5
446.828	543.5
444.768	539.5
442.708	573.5
440.647	560.5
438.587	563
436.525	567
434.463	570.5
432.4	554.5
430.337	579.5
428.274	582.5
426.21	580
424.145	576
422.079	584
420.014	590
417.948	575
415.882	587.5
413.814	597.5
411.746	592
409.679	597
407.609	614
405.54	584
403.47	586
401.401	610
399.329	632
397.258	589
395.187	610.5
393.114	604
391.041	603
388.968	613.5
386.895	600.5
384.82	625.5
382.745	618.5
380.67	624
378.594	624.5
376.517	602
374.44	634
372.363	634
370.286	634.5
368.207	611.5
366.128	648.5
364.049	646
361.969	650.5
359.888	647
357.807	650.5
355.725	638.5
353.643	649
351.561	652
349.477	651.5
347.394	644.5
345.31	664.5
343.226	677
341.141	666
339.055	676.5
336.968	681.5
334.882	686.5
332.795	686
330.707	696.5
328.618	706
326.53	716
324.44	704.5
322.351	736.5
320.26	724
318.17	770.5
316.078	773.5
313.987	793
311.895	822.5
309.802	834.5
307.708	859
305.614	875
303.52	881
301.425	882
299.329	870
297.233	867
295.137	843
293.039	842.5
290.942	840.5
288.844	822
286.745	824.5
284.647	842
282.546	844.5
280.446	822
278.346	855.5
276.245	854.5
274.143	860
272.041	870
269.939	847
267.835	851.5
265.731	861
263.627	887
261.522	879.5
259.417	902
257.311	894
255.204	922.5
253.098	923.5
250.99	959
248.882	936.5
246.774	947.5
244.664	940
242.555	935.5
240.445	958.5
238.334	964
236.223	989.5
234.112	983
232	999
229.888	1034.5
227.775	995
225.661	1038
223.546	1054.5
221.431	1031.5
219.316	1052.5
217.201	1061.5
215.084	1057
212.967	1036
210.85	1062.5
208.732	1052.5
206.614	1047
204.495	1057.5
202.375	1049
200.256	1064
198.135	1042.5
196.014	1069.5
193.893	1051.5
191.771	1040
189.648	1051.5
187.525	1080.5
185.401	1071.5
183.277	1054
181.152	1049
179.027	1062
176.901	1060.5
174.775	1084.5
172.648	1096
170.521	1068.5
168.393	1102.5
166.265	1105.5
164.136	1135
162.007	1164.5
159.876	1152.5
157.746	1184
155.615	1210.5
153.483	1237
151.351	1259.5
149.219	1273
147.086	1306.5
144.952	1354.5
142.818	1366
140.684	1404
138.548	1443
136.413	1504
134.276	1528.5
132.139	1551.5
130.002	1625
127.864	1665
125.725	1701
123.587	1742
121.447	1821
119.307	1874
117.166	1892
115.026	2007.5
112.885	2059.5
110.743	2117.5
108.6	2187
106.456	2235
104.313	2273.5
102.169	2220.5
100.023	2190
97.8789	2106.5
95.7328	1925
93.5869	1695
91.4392	1435
89.2919	1204
87.1447	963.5
84.9959	745.5
