3528.51	139
3527.23	154.5
3525.95	151.5
3524.67	162.5
3523.39	171
3522.1	170
3520.82	170
3519.54	167
3518.26	157.5
3516.97	169
3515.69	171
3514.4	165
3513.12	162.5
3511.84	164.5
3510.55	164
3509.26	176
3507.98	180.5
3506.69	172
3505.41	176.5
3504.12	178
3502.83	180.5
3501.54	181
3500.26	173.5
3498.97	183.5
3497.68	193
3496.39	196.5
3495.1	191
3493.81	207.5
3492.52	197
3491.23	205
3489.94	195.5
3488.65	213.5
3487.36	207
3486.07	202
3484.78	223.5
3483.49	222
3482.19	225
3480.9	232.5
3479.61	237
3478.31	237
3477.02	245.5
3475.73	240.5
3474.43	242
3473.14	232.5
3471.84	255
3470.54	252
3469.25	254
3467.95	254.5
3466.66	239
3465.36	251.5
3464.06	256.5
3462.76	251
3461.46	266.5
3460.17	253.5
3458.87	262
3457.57	255
3456.27	261
3454.97	274.5
3453.67	262.5
3452.37	276.5
3451.07	283
3449.77	273.5
3448.47	288
3447.16	294.5
3445.86	281
3444.56	293
3443.26	291
3441.95	313
3440.65	295.5
3439.35	308
3438.04	319
3436.74	329.5
3435.43	330
3434.13	331
3432.82	336
3431.52	342.5
3430.21	365
3428.9	370
3427.6	350.5
3426.29	382.5
3424.98	380
3423.67	368.5
3422.36	383
3421.06	396.5
3419.75	404.5
3418.44	409
3417.13	413.5
3415.82	415
3414.51	417.5
3413.2	419
3411.88	417.5
3410.57	433
3409.26	438.5
3407.95	439.5
3406.64	444
3405.32	454
3404.01	449
3402.7	444.5
3401.38	455.5
3400.07	465
3398.75	468
3397.44	462.5
3396.12	449
3394.81	468.5
3393.49	482.5
3392.18	474
3390.86	486
3389.54	488.5
3388.23	485
3386.91	505.5
3385.59	495.5
3384.27	507.5
3382.95	509.5
3381.63	512.5
3380.31	528.5
3378.99	513.5
3377.67	524
3376.35	532
3375.03	531.5
3373.71	545.5
3372.39	541
3371.07	549.5
3369.75	585.5
3368.42	550.5
3367.1	560.5
3365.78	569.5
3364.45	564
3363.13	559.5
3361.81	571
3360.48	584.5
3359.16	580
3357.83	589
3356.51	588.5
3355.18	587.5
3353.85	593.5
3352.53	606
3351.2	607.5
3349.87	588.5
3348.54	604
3347.22	603
3345.89	611.5
3344.56	621.5
3343.23	614.5
3341.9	610
3340.57	614
3339.24	624.5
3337.91	625
3336.58	629
3335.25	626.5
3333.92	626
3332.58	634.5
3331.25	654.5
3329.92	633
3328.59	645.5
3327.25	646.5
3325.92	642
3324.58	646
3323.25	654.5
3321.92	654.5
3320.58	653
3319.25	665.5
3317.91	663
3316.57	679
3315.24	665
3313.9	675.5
3312.56	686
3311.23	675
3309.89	693
3308.55	690.5
3307.21	688.5
3305.87	680.5
3304.53	697
3303.19	707
3301.85	702.5
3300.51	712.5
3299.17	710.5
3297.83	708.5
3296.49	721
3295.15	710
3293.81	728
3292.46	737
3291.12	722.5
3289.78	732
3288.43	725
3287.09	739.5
3285.75	738
3284.4	727.5
3283.06	752.5
3281.71	746.5
3280.37	767.5
3279.02	766.5
3277.67	734
3276.33	766
3274.98	753
3273.63	775
3272.28	768
3270.94	797.5
3269.59	791.5
3268.24	773
3266.89	804
3265.54	798
3264.19	828
3262.84	842.5
3261.49	833
3260.14	853
3258.79	871.5
3257.44	871.5
3256.08	898.5
3254.73	900
3253.38	928
3252.03	956
3250.67	987.5
3249.32	994.5
3247.96	1009
3246.61	1064
3245.26	1073
3243.9	1076.5
3242.54	1128
3241.19	1162
3239.83	1171
3238.48	1195.5
3237.12	1253
3235.76	1277.5
3234.41	1291
3233.05	1343.5
3231.69	1361.5
3230.33	1397.5
3228.97	1402.5
3227.61	1443
3226.25	1479.5
3224.89	1487
3223.53	1535
3222.17	1507.5
3220.81	1582
3219.45	1604.5
3218.09	1590.5
3216.72	1633.5
3215.36	1626.5
3214	1657.5
3212.63	1655
3211.27	1693
3209.91	1708.5
3208.54	1722
3207.18	1701
3205.81	1724
3204.45	1747.5
3203.08	1758
3201.71	1768.5
3200.35	1797
3198.98	1782
3197.61	1806
3196.25	1824.5
3194.88	1828
3193.51	1821
3192.14	1873
3190.77	1844
3189.4	1866.5
3188.03	1881
3186.66	1881
3185.29	1865.5
3183.92	1896.5
3182.55	1872
3181.18	1906
3179.81	1919.5
3178.44	1949
3177.06	1925
3175.69	1956.5
3174.32	1943.5
3172.94	1965.5
3171.57	1984
3170.2	2034.5
3168.82	1986.5
3167.45	2031
3166.07	2042.5
3164.69	2069
3163.32	2079.5
3161.94	2078
3160.56	2122
3159.19	2120.5
3157.81	2136.5
3156.43	2154.5
3155.05	2177.5
3153.67	2166
3152.3	2208.5
3150.92	2227
3149.54	2243.5
3148.16	2239.5
3146.78	2268
3145.4	2266.5
3144.01	2273.5
3142.63	2290.5
3141.25	2336.5
3139.87	2308
3138.49	2342.5
3137.1	2400
3135.72	2402
3134.34	2383.5
3132.95	2403
3131.57	2450.5
3130.18	2442
3128.8	2466
3127.41	2471
3126.03	2482
3124.64	2521
3123.25	2509.5
3121.87	2548.5
3120.48	2522.5
3119.09	2550
3117.7	2562.5
3116.32	2562.5
3114.93	2592
3113.54	2591
3112.15	2670.5
3110.76	2609.5
3109.37	2647
3107.98	2687
3106.59	2675.5
3105.2	2696.5
3103.8	2682
3102.41	2707
3101.02	2740.5
3099.63	2704.5
3098.23	2751.5
3096.84	2772.5
3095.45	2786
3094.05	2807
3092.66	2771.5
3091.26	2789
3089.87	2840.5
3088.47	2820
3087.08	2805
3085.68	2879.5
3084.28	2842.5
3082.89	2839
3081.49	2886
3080.09	2871.5
3078.69	2885.5
3077.3	2893
3075.9	2900.5
3074.5	2889.5
3073.1	2905.5
3071.7	2945.5
3070.3	2928.5
3068.9	2914.5
3067.5	2905.5
3066.09	2932
3064.69	2948.5
3063.29	2961.5
3061.89	3004.5
3060.48	2984.5
3059.08	2976.5
3057.68	3006.5
3056.27	3041
3054.87	2985.5
3053.46	2997.5
3052.06	3014.5
3050.65	3054.5
3049.25	3037
3047.84	3066.5
3046.44	3081
3045.03	3080.5
3043.62	3114
3042.21	3101
3040.81	3110.5
3039.4	3123
3037.99	3117
3036.58	3152.5
3035.17	3135.5
3033.76	3142.5
3032.35	3143.5
3030.94	3154.5
3029.53	3187.5
3028.12	3167
3026.71	3132
3025.29	3192
3023.88	3169.5
3022.47	3219
3021.06	3211.5
3019.64	3230
3018.23	3215.5
3016.82	3220
3015.4	3243.5
3013.99	3206.5
3012.57	3249.5
3011.15	3229.5
3009.74	3237
3008.32	3257.5
3006.91	3276.5
3005.49	3268
3004.07	3295
3002.65	3298.5
3001.24	3289.5
2999.82	3347.5
2998.4	3362.5
2996.98	3343
2995.56	3371
2994.14	3406.5
2992.72	3396
2991.3	3402
2989.88	3451.5
2988.46	3447
2987.03	3431.5
2985.61	3499
2984.19	3521.5
2982.77	3471.5
2981.34	3510.5
2979.92	3556.5
2978.49	3553.5
2977.07	3591.5
2975.65	3618
2974.22	3678.5
2972.79	3645.5
2971.37	3657
2969.94	3680
2968.52	3706.5
2967.09	3746.5
2965.66	3743.5
2964.23	3752
2962.81	3760
2961.38	3770.5
2959.95	3797
2958.52	3805
2957.09	3810.5
2955.66	3810.5
2954.23	3830
2952.8	3841
2951.37	3840.5
2949.94	3823.5
2948.5	3850.5
2947.07	3842
2945.64	3935.5
2944.21	3929.5
2942.77	3937
2941.34	4008.5
2939.91	3979.5
2938.47	3990
2937.04	4030
2935.6	3997.5
2934.17	4073
2932.73	4041
2931.29	4140.5
2929.86	4124
2928.42	4136.5
2926.98	4122
2925.55	4166
2924.11	4168.5
2922.67	4232.5
2921.23	4212
2919.79	4201.5
2918.35	4215.5
2916.91	4255.5
2915.47	4214
2914.03	4229.5
2912.59	4252.5
2911.15	4270.5
2909.71	4241.5
2908.26	4293.5
2906.82	4316
2905.38	4305.5
2903.94	4332
2902.49	4313
2901.05	4315.5
2899.6	4319.5
2898.16	4328
2896.71	4396
2895.27	4393
2893.82	4373.5
2892.38	4426
2890.93	4382
2889.48	4393.5
2888.03	4352
2886.59	4383.5
2885.14	4396
2883.69	4424.5
2882.24	4442
2880.79	4450.5
2879.34	4449.5
2877.89	4443
2876.44	4449
2874.99	4452
2873.54	4417
2872.09	4454.5
2870.64	4409.5
2869.18	4424
2867.73	4462.5
2866.28	4452
2864.83	4457.5
2863.37	4451.5
2861.92	4470.5
2860.46	4486.5
2859.01	4434
2857.55	4470
2856.1	4481
2854.64	4474
2853.19	4521
2851.73	4462
2850.27	4474.5
2848.81	4450.5
2847.36	4422
2845.9	4401.5
2844.44	4427
2842.98	4403.5
2841.52	4365
2840.06	4342
2838.6	4274
2837.14	4251.5
2835.68	4238.5
2834.22	4246
2832.76	4192
2831.3	4202
2829.83	4176.5
2828.37	4156
2826.91	4160.5
2825.44	4125
2823.98	4095.5
2822.52	4122.5
2821.05	4030
2819.59	4079.5
2818.12	4096.5
2816.66	4044.5
2815.19	4053
2813.72	4012
2812.26	4043
2810.79	3965
2809.32	3977.5
2807.85	3963
2806.38	3980.5
2804.92	3959
2803.45	3981
2801.98	3968.5
2800.51	3965
2799.04	3874
2797.57	3945.5
2796.1	3961.5
2794.62	3956
2793.15	3914.5
2791.68	3930.5
2790.21	3926.5
2788.73	3930
2787.26	3893.5
2785.79	3934.5
2784.31	3918
2782.84	3928.5
2781.36	3931
2779.89	3921.5
2778.41	3973.5
2776.94	3918
2775.46	3980.5
2773.99	3981.5
2772.51	3982.5
2771.03	3980.5
2769.55	3979.5
2768.07	3994
2766.6	4003.5
2765.12	3979
2763.64	3995
2762.16	3980.5
2760.68	3976.5
2759.2	4002.5
2757.72	4007.5
2756.24	3984.5
2754.75	3963.5
2753.27	3987
2751.79	4022
2750.31	3976.5
2748.82	3994.5
2747.34	3996
2745.86	4012
2744.37	4003
2742.89	4006
2741.4	3969
2739.92	3978
2738.43	3949.5
2736.94	3980
2735.46	3983.5
2733.97	3967.5
2732.48	3949
2731	3946
2729.51	3935
2728.02	3976
2726.53	3966.5
2725.04	3950
2723.55	3910
2722.06	3943
2720.57	3967.5
2719.08	3997.5
2717.59	3974.5
2716.1	3987.5
2714.61	3942
2713.11	3942.5
2711.62	3952
2710.13	3982.5
2708.64	3929.5
2707.14	3955.5
2705.65	3954.5
2704.15	3939.5
2702.66	3892.5
2701.16	3903.5
2699.67	3903
2698.17	3928.5
2696.67	3919
2695.18	3917
2693.68	3894.5
2692.18	3901
2690.69	3899.5
2689.19	3876.5
2687.69	3869
2686.19	3839
2684.69	3825
2683.19	3861.5
2681.69	3846
2680.19	3869.5
2678.69	3778.5
2677.19	3812
2675.68	3807.5
2674.18	3842
2672.68	3815.5
2671.18	3792
2669.67	3780.5
2668.17	3762
2666.66	3792
2665.16	3791
2663.66	3815.5
2662.15	3744
2660.64	3793.5
2659.14	3776
2657.63	3786.5
2656.13	3777.5
2654.62	3745.5
2653.11	3743
2651.6	3744.5
2650.09	3715
2648.58	3720.5
2647.08	3700
2645.57	3733.5
2644.06	3687
2642.55	3693
2641.04	3677
2639.52	3678
2638.01	3667.5
2636.5	3691
2634.99	3665.5
2633.48	3617.5
2631.96	3634.5
2630.45	3583
2628.94	3583.5
2627.42	3625.5
2625.91	3588
2624.39	3590
2622.88	3585.5
2621.36	3609
2619.85	3564.5
2618.33	3578
2616.81	3589.5
2615.3	3592.5
2613.78	3602.5
2612.26	3570.5
2610.74	3558
2609.22	3530
2607.7	3601
2606.18	3552.5
2604.66	3540.5
2603.14	3504.5
2601.62	3541.5
2600.1	3525
2598.58	3482
2597.06	3480
2595.54	3454
2594.01	3464.5
2592.49	3454
2590.97	3406
2589.44	3432
2587.92	3399
2586.39	3450.5
2584.87	3445
2583.34	3404.5
2581.82	3389.5
2580.29	3361
2578.76	3390.5
2577.24	3345.5
2575.71	3379.5
2574.18	3388.5
2572.65	3371.5
2571.13	3372.5
2569.6	3393
2568.07	3373.5
2566.54	3321
2565.01	3323
2563.48	3320
2561.95	3323.5
2560.42	3352
2558.88	3317
2557.35	3296
2555.82	3286
2554.29	3306.5
2552.75	3290.5
2551.22	3272.5
2549.69	3292.5
2548.15	3249
2546.62	3261
2545.08	3251.5
2543.55	3272.5
2542.01	3214
2540.47	3241
2538.94	3202.5
2537.4	3181.5
2535.86	3220
2534.33	3217
2532.79	3192
2531.25	3144
2529.71	3152
2528.17	3178
2526.63	3136.5
2525.09	3137
2523.55	3120.5
2522.01	3132.5
2520.47	3121.5
2518.92	3120.5
2517.38	3096
2515.84	3100.5
2514.3	3077.5
2512.75	3072.5
2511.21	3061
2509.67	3049.5
2508.12	3063.5
2506.58	3054
2505.03	3038.5
2503.49	3009
2501.94	3011.5
2500.39	3005.5
2498.85	3009
2497.3	2997
2495.75	2988.5
2494.2	2989.5
2492.65	2936
2491.11	2937.5
2489.56	2960
2488.01	2988.5
2486.46	2912
2484.91	2890.5
2483.36	2884.5
2481.8	2902.5
2480.25	2871.5
2478.7	2854
2477.15	2844.5
2475.6	2859.5
2474.04	2823
2472.49	2842
2470.93	2797
2469.38	2807.5
2467.83	2775
2466.27	2753
2464.71	2798
2463.16	2744.5
2461.6	2790
2460.05	2718.5
2458.49	2678
2456.93	2722.5
2455.37	2703.5
2453.81	2710.5
2452.26	2693.5
2450.7	2677.5
2449.14	2664
2447.58	2669.5
2446.02	2675
2444.46	2617
2442.9	2616.5
2441.33	2616.5
2439.77	2608.5
2438.21	2598.5
2436.65	2610
2435.08	2620
2433.52	2589.5
2431.96	2560
2430.39	2589
2428.83	2565.5
2427.26	2604.5
2425.7	2553
2424.13	2529.5
2422.56	2564.5
2421	2526
2419.43	2530.5
2417.86	2524
2416.3	2514.5
2414.73	2496
2413.16	2495
2411.59	2510
2410.02	2495.5
2408.45	2493.5
2406.88	2496.5
2405.31	2487
2403.74	2476.5
2402.17	2458
2400.6	2471
2399.02	2467.5
2397.45	2439.5
2395.88	2457.5
2394.3	2445.5
2392.73	2458.5
2391.16	2413.5
2389.58	2403.5
2388.01	2446
2386.43	2408
2384.86	2425
2383.28	2417.5
2381.7	2392.5
2380.13	2409.5
2378.55	2392.5
2376.97	2425.5
2375.39	2394
2373.81	2374.5
2372.23	2380
2370.65	2349
2369.07	2367.5
2367.49	2321.5
2365.91	2346.5
2364.33	2329.5
2362.75	2324
2361.17	2344
2359.59	2307.5
2358.01	2318
2356.42	2333.5
2354.84	2356
2353.25	2298
2351.67	2279
2350.09	2298
2348.5	2310
2346.92	2288.5
2345.33	2266.5
2343.74	2277
2342.16	2263.5
2340.57	2343.5
2338.98	2277.5
2337.39	2235.5
2335.81	2230
2334.22	2236
2332.63	2252.5
2331.04	2236
2329.45	2234.5
2327.86	2255
2326.27	2215.5
2324.68	2276.5
2323.09	2230.5
2321.49	2224.5
2319.9	2203.5
2318.31	2231
2316.72	2203.5
2315.12	2205.5
2313.53	2182.5
2311.93	2183
2310.34	2190
2308.74	2142
2307.15	2152
2305.55	2123.5
2303.96	2143.5
2302.36	2096.5
2300.76	2104
2299.17	2131
2297.57	2096.5
2295.97	2073
2294.37	2098.5
2292.77	2088.5
2291.17	2072.5
2289.57	2068
2287.97	2053
2286.37	2059.5
2284.77	2037
2283.17	2032.5
2281.57	2049.5
2279.96	2053
2278.36	2037.5
2276.76	2013.5
2275.15	2035
2273.55	2030
2271.95	2021
2270.34	1993.5
2268.74	1992
2267.13	1986.5
2265.52	1951.5
2263.92	1955.5
2262.31	1971
2260.7	1938.5
2259.1	1964
2257.49	1917
2255.88	1903
2254.27	1918.5
2252.66	1914.5
2251.05	1922
2249.44	1914
2247.83	1918.5
2246.22	1902.5
2244.61	1889
2243	1929
2241.39	1927
2239.77	1908
2238.16	1838.5
2236.55	1889
2234.93	1851
2233.32	1869.5
2231.7	1852
2230.09	1837.5
2228.47	1829.5
2226.86	1821.5
2225.24	1818.5
2223.63	1822.5
2222.01	1817
2220.39	1784
2218.77	1774.5
2217.16	1781
2215.54	1764
2213.92	1794
2212.3	1751
2210.68	1786.5
2209.06	1759.5
2207.44	1735.5
2205.82	1740
2204.19	1757
2202.57	1723.5
2200.95	1718
2199.33	1731
2197.7	1730
2196.08	1697
2194.46	1673.5
2192.83	1727.5
2191.21	1714.5
2189.58	1684
2187.96	1700.5
2186.33	1683.5
2184.7	1713
2183.08	1668
2181.45	1671.5
2179.82	1651
2178.19	1659.5
2176.57	1664
2174.94	1652
2173.31	1648.5
2171.68	1628.5
2170.05	1622
2168.42	1644.5
2166.79	1623
2165.16	1610.5
2163.52	1640.5
2161.89	1597.5
2160.26	1606
2158.63	1587.5
2156.99	1588.5
2155.36	1575
2153.73	1562.5
2152.09	1578
2150.46	1559
2148.82	1573.5
2147.18	1557.5
2145.55	1560
2143.91	1540.5
2142.27	1563
2140.64	1519.5
2139	1519
2137.36	1506.5
2135.72	1521.5
2134.08	1509
2132.44	1492
2130.8	1506.5
2129.16	1468
2127.52	1475.5
2125.88	1467.5
2124.24	1423.5
2122.6	1468.5
2120.95	1457
2119.31	1450
2117.67	1452
2116.02	1425
2114.38	1414
2112.74	1405
2111.09	1398
2109.45	1400.5
2107.8	1381.5
2106.15	1398
2104.51	1397.5
2102.86	1370
2101.21	1380.5
2099.56	1364
2097.92	1369.5
2096.27	1358
2094.62	1363.5
2092.97	1345
2091.32	1355
2089.67	1349
2088.02	1349.5
2086.37	1360.5
2084.72	1344
2083.06	1344.5
2081.41	1356
2079.76	1333.5
2078.1	1339
2076.45	1330.5
2074.8	1343
2073.14	1328
2071.49	1369
2069.83	1302.5
2068.18	1322.5
2066.52	1317.5
2064.86	1295
2063.21	1312.5
2061.55	1315
2059.89	1279.5
2058.23	1293.5
2056.57	1298
2054.92	1265
2053.26	1298.5
2051.6	1262.5
2049.94	1273
2048.27	1249.5
2046.61	1260.5
2044.95	1253
2043.29	1259
2041.63	1274.5
2039.97	1248
2038.3	1213.5
2036.64	1253.5
2034.97	1217.5
2033.31	1235.5
2031.64	1196
2029.98	1206.5
2028.31	1178
2026.65	1210
2024.98	1186
2023.31	1167.5
2021.65	1162.5
2019.98	1146
2018.31	1182.5
2016.64	1160
2014.97	1175
2013.3	1130
2011.63	1150
2009.96	1171
2008.29	1134
2006.62	1133.5
2004.95	1133
2003.28	1126
2001.6	1116.5
1999.93	1128.5
1998.26	1118
1996.58	1124
1994.91	1118.5
1993.24	1112.5
1991.56	1106.5
1989.89	1119.5
1988.21	1087.5
1986.53	1105
1984.86	1080.5
1983.18	1100.5
1981.5	1112
1979.82	1077.5
1978.15	1083.5
1976.47	1073.5
1974.79	1059.5
1973.11	1058
1971.43	1064
1969.75	1037.5
1968.07	1069.5
1966.38	1036.5
1964.7	1046
1963.02	1034.5
1961.34	1021
1959.66	1012
1957.97	1018.5
1956.29	1005.5
1954.6	1022
1952.92	1012.5
1951.23	1028
1949.55	1000.5
1947.86	1005
1946.18	1000.5
1944.49	968
1942.8	989.5
1941.11	1007.5
1939.43	998
1937.74	1002
1936.05	960
1934.36	981.5
1932.67	960
1930.98	972.5
1929.29	970
1927.6	963.5
1925.91	939.5
1924.21	934.5
1922.52	935.5
1920.83	963
1919.14	948
1917.44	940
1915.75	932.5
1914.05	930.5
1912.36	914.5
1910.66	925
1908.97	914
1907.27	934
1905.58	914.5
1903.88	891.5
1902.18	905.5
1900.48	894
1898.79	884
1897.09	898
1895.39	884
1893.69	884
1891.99	882
1890.29	870.5
1888.59	867
1886.89	865.5
1885.18	858.5
1883.48	857.5
1881.78	865
1880.08	837
1878.37	829
1876.67	864
1874.96	813
1873.26	830
1871.55	824
1869.85	816.5
1868.14	802
1866.44	820.5
1864.73	811.5
1863.02	809
1861.32	803.5
1859.61	801
1857.9	806
1856.19	808
1854.48	798.5
1852.77	773
1851.06	785.5
1849.35	796
1847.64	790
1845.93	805
1844.21	761
1842.5	775.5
1840.79	792.5
1839.08	759
1837.36	749.5
1835.65	763
1833.93	763
1832.22	776
1830.5	761
1828.79	751
1827.07	747.5
1825.36	746
1823.64	752
1821.92	727
1820.2	760
1818.48	741
1816.77	747
1815.05	730.5
1813.33	716.5
1811.61	726
1809.89	737
1808.16	719.5
1806.44	720
1804.72	692
1803	702
1801.28	713.5
1799.55	701
1797.83	693
1796.11	704
1794.38	697
1792.66	687.5
1790.93	692
1789.21	681
1787.48	681.5
1785.75	702.5
1784.03	673.5
1782.3	684.5
1780.57	684.5
1778.84	677.5
1777.11	678.5
1775.38	672
1773.66	680.5
1771.93	696
1770.19	686.5
1768.46	672.5
1766.73	682.5
1765	682.5
1763.27	701
1761.54	710.5
1759.8	719.5
1758.07	740.5
1756.34	733
1754.6	753
1752.87	747.5
1751.13	767
1749.4	767.5
1747.66	754.5
1745.92	758
1744.19	767
1742.45	739.5
1740.71	728.5
1738.97	732
1737.23	727.5
1735.49	717
1733.75	698
1732.01	689
1730.27	672.5
1728.53	685.5
1726.79	666
1725.05	628
1723.31	637
1721.57	630.5
1719.82	640.5
1718.08	620
1716.34	613
1714.59	616.5
1712.85	620
1711.1	613
1709.36	612.5
1707.61	614
1705.86	607.5
1704.12	605.5
1702.37	611.5
1700.62	608.5
1698.87	585
1697.12	605
1695.37	591.5
1693.62	604
1691.87	580.5
1690.12	601
1688.37	583
1686.62	591
1684.87	588.5
1683.12	595.5
1681.36	592
1679.61	602
1677.86	606.5
1676.1	606
1674.35	616.5
1672.59	658
1670.84	661.5
1669.08	687
1667.33	729
1665.57	794
1663.81	812
1662.06	891.5
1660.3	921.5
1658.54	947.5
1656.78	957
1655.02	913
1653.26	921.5
1651.5	871
1649.74	794.5
1647.98	739
1646.22	708.5
1644.46	665
1642.7	630
1640.93	636
1639.17	619
1637.41	613.5
1635.64	608.5
1633.88	569
1632.11	576.5
1630.35	565
1628.58	553
1626.81	559
1625.05	550
1623.28	523.5
1621.51	528
1619.75	526.5
1617.98	539.5
1616.21	521.5
1614.44	534.5
1612.67	518
1610.9	529
1609.13	514.5
1607.36	525
1605.58	518.5
1603.81	534
1602.04	514.5
1600.27	505.5
1598.49	523
1596.72	518.5
1594.95	499.5
1593.17	508
1591.4	506
1589.62	529
1587.84	518
1586.07	499.5
1584.29	497
1582.51	512.5
1580.74	504.5
1578.96	516.5
1577.18	508
1575.4	507.5
1573.62	495
1571.84	493.5
1570.06	498.5
1568.28	501
1566.5	496
1564.72	490
1562.93	492.5
1561.15	491
1559.37	475
1557.58	501.5
1555.8	498
1554.02	502.5
1552.23	500
1550.45	491.5
1548.66	489.5
1546.87	473
1545.09	478.5
1543.3	465.5
1541.51	469
1539.72	481
1537.94	481
1536.15	483
1534.36	480.5
1532.57	467
1530.78	471
1528.99	481.5
1527.2	466.5
1525.4	481.5
1523.61	479
1521.82	481.5
1520.03	471
1518.23	472
1516.44	478
1514.65	484
1512.85	475
1511.06	480
1509.26	493
1507.46	480
1505.67	504.5
1503.87	505
1502.07	498.5
1500.28	506.5
1498.48	502
1496.68	513
1494.88	522.5
1493.08	542
1491.28	529.5
1489.48	539.5
1487.68	556.5
1485.88	576.5
1484.08	593.5
1482.27	606
1480.47	631
1478.67	662
1476.86	687.5
1475.06	735.5
1473.25	803
1471.45	845
1469.64	903.5
1467.84	951.5
1466.03	999.5
1464.23	1060
1462.42	1131.5
1460.61	1188
1458.8	1208.5
1456.99	1271.5
1455.18	1279.5
1453.37	1312.5
1451.56	1346.5
1449.75	1405.5
1447.94	1468.5
1446.13	1510
1444.32	1555
1442.51	1601.5
1440.7	1616.5
1438.88	1573
1437.07	1463
1435.26	1337
1433.44	1212.5
1431.63	1068
1429.81	956
1427.99	873.5
1426.18	792.5
1424.36	735.5
1422.54	724
1420.73	698
1418.91	664
1417.09	643
1415.27	611.5
1413.45	580
1411.63	559
1409.81	536
1407.99	533
1406.17	535.5
1404.35	528.5
1402.53	522
1400.7	516
1398.88	508.5
1397.06	498.5
1395.23	500.5
1393.41	498
1391.58	462.5
1389.76	489
1387.93	480
1386.11	477.5
1384.28	490.5
1382.45	482
1380.62	485.5
1378.8	494.5
1376.97	514.5
1375.14	506
1373.31	513
1371.48	496.5
1369.65	528
1367.82	517.5
1365.99	512
1364.16	509
1362.32	514
1360.49	501
1358.66	497
1356.82	520
1354.99	506.5
1353.16	514.5
1351.32	492
1349.48	501
1347.65	519
1345.81	533.5
1343.98	535.5
1342.14	524.5
1340.3	530
1338.46	529.5
1336.62	554.5
1334.79	536
1332.95	570
1331.11	573.5
1329.27	578
1327.42	620
1325.58	649.5
1323.74	689.5
1321.9	714.5
1320.06	748
1318.21	779
1316.37	834
1314.53	889
1312.68	923
1310.84	967
1308.99	1051
1307.15	1113
1305.3	1153.5
1303.45	1194.5
1301.61	1265.5
1299.76	1264
1297.91	1205
1296.06	1139.5
1294.21	1047.5
1292.36	967
1290.51	894
1288.66	832
1286.81	816.5
1284.96	777
1283.11	781.5
1281.26	774
1279.4	785
1277.55	787
1275.7	786
1273.84	794
1271.99	836.5
1270.13	813
1268.28	826.5
1266.42	808
1264.56	800
1262.71	800.5
1260.85	786.5
1258.99	754
1257.13	720
1255.27	706
1253.41	700.5
1251.56	679
1249.7	629.5
1247.83	635.5
1245.97	619.5
1244.11	572
1242.25	550
1240.39	554
1238.52	535.5
1236.66	532
1234.8	534
1232.93	532
1231.07	517
1229.2	493.5
1227.34	498
1225.47	500
1223.6	482
1221.74	476.5
1219.87	467.5
1218	474
1216.13	477
1214.26	454.5
1212.39	453
1210.53	456
1208.65	448.5
1206.78	444
1204.91	455.5
1203.04	467.5
1201.17	449
1199.3	457
1197.42	449
1195.55	448
1193.68	456
1191.8	442
1189.93	443
1188.05	449
1186.17	449
1184.3	454
1182.42	453.5
1180.54	449
1178.67	466
1176.79	461.5
1174.91	469
1173.03	468
1171.15	458.5
1169.27	447
1167.39	459
1165.51	477
1163.63	471
1161.75	469.5
1159.86	468
1157.98	460
1156.1	456.5
1154.21	436
1152.33	469
1150.44	471
1148.56	486
1146.67	483
1144.79	489.5
1142.9	493
1141.01	494.5
1139.12	524.5
1137.24	535
1135.35	576.5
1133.46	632
1131.57	683
1129.68	709.5
1127.79	702
1125.9	669.5
1124.01	674.5
1122.12	670
1120.22	638
1118.33	644.5
1116.44	631
1114.54	631.5
1112.65	645.5
1110.75	641
1108.86	641.5
1106.96	655.5
1105.07	682
1103.17	675
1101.27	716.5
1099.38	727.5
1097.48	766.5
1095.58	794
1093.68	825.5
1091.78	855
1089.88	860.5
1087.98	867.5
1086.08	892
1084.18	918
1082.28	921
1080.38	915
1078.47	915
1076.57	895
1074.67	897.5
1072.76	871.5
1070.86	902.5
1068.95	891.5
1067.05	955
1065.14	953
1063.24	956.5
1061.33	944.5
1059.42	861
1057.51	793
1055.6	720
1053.7	705.5
1051.79	672
1049.88	686
1047.97	647
1046.06	640
1044.14	654.5
1042.23	649
1040.32	650
1038.41	625
1036.5	633
1034.58	654
1032.67	639.5
1030.75	645
1028.84	614
1026.92	632
1025.01	624.5
1023.09	644.5
1021.17	631
1019.26	598
1017.34	627.5
1015.42	614.5
1013.5	612.5
1011.58	599.5
1009.66	608.5
1007.74	605.5
1005.82	570.5
1003.9	582
1001.98	583
1000.06	568
998.134	579.5
996.212	595
994.288	565
992.364	583.5
990.44	591.5
988.515	587.5
986.589	604
984.663	653.5
982.737	673.5
980.81	657.5
978.883	676.5
976.955	708
975.027	716
973.098	750
971.169	717
969.239	721
967.308	737
965.378	746.5
963.447	722
961.516	725
959.583	714.5
957.65	704
955.718	719
953.784	724.5
951.85	731
949.916	733
947.981	737.5
946.045	740.5
944.109	748.5
942.173	758.5
940.236	759
938.298	756
936.36	755.5
934.422	764
932.484	715
930.544	718
928.604	701
926.664	685
924.724	703
922.782	719
920.84	712
918.898	712.5
916.955	699.5
915.012	701
913.068	692
911.124	706.5
909.18	719
907.235	712
905.289	722.5
903.343	708
901.397	734
899.45	748
897.502	769
895.554	796
893.605	824
891.657	867
889.707	841
887.758	850.5
885.807	844
883.856	831
881.905	824
879.953	822.5
878.001	852
876.048	863
874.094	849.5
872.14	863.5
870.186	868
868.232	861.5
866.276	838
864.321	854.5
862.365	865
860.408	835.5
858.451	809.5
856.493	820
854.535	804
852.576	811.5
850.617	820
848.658	833
846.698	822
844.737	808.5
842.776	798.5
840.814	789.5
838.852	777
836.89	756
834.927	742
832.963	726
830.999	698
829.035	684
827.07	669.5
825.105	652
823.139	640
821.172	632
819.206	629
817.238	612
815.27	605
813.301	601
811.333	590.5
809.363	582
807.394	564.5
805.424	562.5
803.453	544
801.482	554
799.509	528
797.538	507
795.565	484.5
793.592	500.5
791.618	491
789.643	506.5
787.669	478.5
785.693	477
783.718	493.5
781.742	491
779.765	483.5
777.788	490.5
775.811	503.5
773.832	493
771.853	487
769.875	495
767.895	478.5
765.915	500
763.934	494
761.953	488
759.972	501.5
757.99	506
756.007	471
754.024	484.5
752.041	494.5
750.056	491.5
748.072	490
746.087	510
744.102	492
742.116	486
740.13	526
738.143	493
736.155	516.5
734.167	507
732.179	518.5
730.19	483
728.2	534.5
726.21	527
724.22	522.5
722.229	501.5
720.237	504.5
718.246	494.5
716.253	493
714.26	481.5
712.267	489.5
710.273	481.5
708.279	486
706.284	464
704.289	465.5
702.293	462.5
700.296	483.5
698.3	477
696.303	459
694.305	474
692.307	459
690.307	467.5
688.308	455
686.309	463
684.308	467.5
682.308	469
680.306	475.5
678.304	461
676.302	468.5
674.3	461
672.296	483.5
670.293	465.5
668.289	475
666.284	465
664.278	474
662.273	475.5
660.266	466
658.26	476
656.252	479
654.244	494.5
652.237	487
650.227	491
648.218	503
646.209	490.5
644.198	511.5
642.188	502
640.177	504
638.165	497
636.153	507
634.14	488.5
632.128	506.5
630.113	503.5
628.099	531.5
626.085	514.5
624.07	532.5
622.054	536
620.038	536.5
618.021	532
616.004	561
613.986	545.5
611.968	569
609.949	543
607.93	566.5
605.911	571
603.891	554.5
601.87	575
599.848	572
597.827	559
595.805	575.5
593.782	563
591.759	539.5
589.735	558
587.711	546
585.687	541
583.661	558.5
581.636	547.5
579.609	535.5
577.583	543
575.555	544
573.527	525
571.5	541
569.471	534.5
567.441	530.5
565.412	534.5
563.382	536
561.351	529
559.32	559
557.289	565
555.257	567
553.223	562
551.19	582.5
549.157	588
547.122	611.5
545.088	607
543.053	629
541.017	663
538.981	692
536.943	732.5
534.907	825
532.869	944.5
530.831	1152
528.792	1572.5
526.752	2235
524.713	3263.5
522.673	4131.5
520.632	4294.5
518.591	3584
516.549	2709.5
514.507	1960
512.464	1387
510.42	1083
508.377	918.5
506.332	825
504.288	763
502.242	734.5
500.196	705.5
498.15	711
496.104	693
494.056	674
492.008	656
489.96	686
487.911	649
485.862	663.5
483.812	661
481.761	671.5
479.71	658.5
477.659	661.5
475.607	650.5
473.555	651.5
471.502	635.5
469.448	650
467.395	645.5
465.34	644.5
463.285	648.5
461.23	659.5
459.174	657
457.118	642.5
455.061	662.5
453.003	658
450.945	675
448.887	679
446.828	686
444.768	675.5
442.708	700
440.647	677.5
438.587	675.5
436.525	684.5
434.463	687.5
432.4	698.5
430.337	700.5
428.274	714
426.21	717.5
424.145	711
422.079	728.5
420.014	708
417.948	706.5
415.882	723
413.814	711
411.746	733
409.679	744.5
407.609	746
405.54	739
403.47	757.5
401.401	751.5
399.329	744.5
397.258	749.5
395.187	740.5
393.114	744.5
391.041	724
388.968	739.5
386.895	757
384.82	745
382.745	744
380.67	759.5
378.594	747
376.517	778.5
374.44	748.5
372.363	781
370.286	775
368.207	763
366.128	798
364.049	758
361.969	767
359.888	792.5
357.807	765.5
355.725	806.5
353.643	793.5
351.561	796
349.477	788
347.394	803
345.31	807.5
343.226	821
341.141	807.5
339.055	823
336.968	809.5
334.882	824.5
332.795	838.5
330.707	826.5
328.618	857
326.53	861.5
324.44	862.5
322.351	876.5
320.26	882.5
318.17	888
316.078	905
313.987	948.5
311.895	941
309.802	961
307.708	1000.5
305.614	1000.5
303.52	997.5
301.425	1033.5
299.329	1021
297.233	995.5
295.137	992
293.039	980.5
290.942	1005
288.844	1001.5
286.745	995.5
284.647	988.5
282.546	1000.5
280.446	1005.5
278.346	987.5
276.245	1014.5
274.143	1028.5
272.041	1033
269.939	1051.5
267.835	1043.5
265.731	1042
263.627	1052
261.522	1056
259.417	1098.5
257.311	1095
255.204	1084
253.098	1123.5
250.99	1121
248.882	1119
246.774	1147.5
244.664	1127
242.555	1139.5
240.445	1179.5
238.334	1186
236.223	1218
234.112	1213
232	1201.5
229.888	1228
227.775	1252
225.661	1251
223.546	1255
221.431	1258
219.316	1281.5
217.201	1265.5
215.084	1285
212.967	1272.5
210.85	1290.5
208.732	1270.5
206.614	1285.5
204.495	1285.5
202.375	1289
200.256	1283
198.135	1299.5
196.014	1288.5
193.893	1275.5
191.771	1297
189.648	1273.5
187.525	1279.5
185.401	1261
183.277	1283.5
181.152	1265
179.027	1280
176.901	1275
174.775	1340
172.648	1315
170.521	1325
168.393	1315
166.265	1353
164.136	1357
162.007	1399.5
159.876	1375
157.746	1419.5
155.615	1412
153.483	1464
151.351	1474.5
149.219	1529
147.086	1557.5
144.952	1630
142.818	1641.5
140.684	1716
138.548	1720.5
136.413	1767
134.276	1804.5
132.139	1846
130.002	1895.5
127.864	1969.5
125.725	2023
123.587	2084
121.447	2170
119.307	2231
117.166	2307
115.026	2355.5
112.885	2460
110.743	2520
108.6	2581
106.456	2660.5
104.313	2681.5
102.169	2668.5
100.023	2627.5
97.8789	2484
95.7328	2270
93.5869	2014.5
91.4392	1731.5
89.2919	1421.5
87.1447	1144
84.9959	876.5
