3528.51	79
3527.23	79.5
3525.95	91
3524.67	97
3523.39	93.5
3522.1	98.5
3520.82	98.5
3519.54	98
3518.26	98
3516.97	93
3515.69	98
3514.4	94.5
3513.12	91.5
3511.84	94.5
3510.55	97.5
3509.26	99
3507.98	95
3506.69	107
3505.41	106.5
3504.12	104
3502.83	100
3501.54	114.5
3500.26	105.5
3498.97	105
3497.68	111.5
3496.39	108.5
3495.1	122
3493.81	112
3492.52	118
3491.23	115.5
3489.94	127.5
3488.65	131
3487.36	120
3486.07	137.5
3484.78	125.5
3483.49	120.5
3482.19	132.5
3480.9	140.5
3479.61	129
3478.31	145.5
3477.02	143.5
3475.73	145.5
3474.43	148
3473.14	149
3471.84	148
3470.54	143.5
3469.25	152
3467.95	152.5
3466.66	145.5
3465.36	155.5
3464.06	160.5
3462.76	147
3461.46	165.5
3460.17	159
3458.87	162
3457.57	154.5
3456.27	162
3454.97	163.5
3453.67	159.5
3452.37	165
3451.07	171
3449.77	169
3448.47	165.5
3447.16	168
3445.86	184.5
3444.56	180
3443.26	190
3441.95	194
3440.65	193.5
3439.35	194
3438.04	186
3436.74	200.5
3435.43	210
3434.13	203.5
3432.82	220
3431.52	214.5
3430.21	223
3428.9	225.5
3427.6	235
3426.29	240
3424.98	236.5
3423.67	231.5
3422.36	239.5
3421.06	248.5
3419.75	248
3418.44	258
3417.13	259.5
3415.82	256.5
3414.51	257
3413.2	253
3411.88	268
3410.57	274
3409.26	274.5
3407.95	280.5
3406.64	279.5
3405.32	273
3404.01	274.5
3402.7	289
3401.38	290.5
3400.07	294
3398.75	288.5
3397.44	292.5
3396.12	290.5
3394.81	278.5
3393.49	286.5
3392.18	308
3390.86	296
3389.54	298
3388.23	312.5
3386.91	309
3385.59	316.5
3384.27	314.5
3382.95	315
3381.63	322.5
3380.31	332.5
3378.99	341
3377.67	330
3376.35	335
3375.03	336.5
3373.71	331
3372.39	363.5
3371.07	344.5
3369.75	344
3368.42	347.5
3367.1	341.5
3365.78	353.5
3364.45	352
3363.13	357
3361.81	363.5
3360.48	370
3359.16	384.5
3357.83	366.5
3356.51	378.5
3355.18	378.5
3353.85	387
3352.53	384
3351.2	378
3349.87	379
3348.54	369.5
3347.22	375.5
3345.89	385
3344.56	381.5
3343.23	397.5
3341.9	381.5
3340.57	392.5
3339.24	386
3337.91	404
3336.58	391
3335.25	409.5
3333.92	387.5
3332.58	392
3331.25	394
3329.92	414
3328.59	411.5
3327.25	412
3325.92	409
3324.58	411.5
3323.25	414
3321.92	402
3320.58	421
3319.25	405
3317.91	415
3316.57	421.5
3315.24	419.5
3313.9	434
3312.56	427.5
3311.23	437.5
3309.89	427.5
3308.55	444
3307.21	453
3305.87	437
3304.53	437
3303.19	437.5
3301.85	439
3300.51	434
3299.17	449.5
3297.83	454.5
3296.49	445
3295.15	441.5
3293.81	460
3292.46	465.5
3291.12	463
3289.78	453.5
3288.43	454
3287.09	465
3285.75	470.5
3284.4	476
3283.06	464
3281.71	473
3280.37	475.5
3279.02	472
3277.67	475.5
3276.33	483
3274.98	495
3273.63	486
3272.28	497.5
3270.94	484
3269.59	510
3268.24	510.5
3266.89	505
3265.54	522.5
3264.19	519
3262.84	530.5
3261.49	521
3260.14	541.5
3258.79	553
3257.44	552.5
3256.08	560
3254.73	582
3253.38	587
3252.03	601.5
3250.67	608.5
3249.32	634.5
3247.96	643
3246.61	666.5
3245.26	667.5
3243.9	689
3242.54	706.5
3241.19	736.5
3239.83	763
3238.48	757.5
3237.12	810
3235.76	816
3234.41	823
3233.05	835.5
3231.69	866
3230.33	898
3228.97	909.5
3227.61	927.5
3226.25	953
3224.89	959
3223.53	964
3222.17	988.5
3220.81	1006
3219.45	1016
3218.09	1004
3216.72	1035
3215.36	1048
3214	1075.5
3212.63	1088.5
3211.27	1085
3209.91	1080.5
3208.54	1071.5
3207.18	1113.5
3205.81	1131.5
3204.45	1122
3203.08	1127
3201.71	1153
3200.35	1140.5
3198.98	1152.5
3197.61	1158
3196.25	1168
3194.88	1173.5
3193.51	1173
3192.14	1192
3190.77	1165.5
3189.4	1197.5
3188.03	1183
3186.66	1207
3185.29	1212
3183.92	1206.5
3182.55	1222
3181.18	1231.5
3179.81	1212
3178.44	1232.5
3177.06	1239.5
3175.69	1267
3174.32	1268
3172.94	1273.5
3171.57	1283
3170.2	1288
3168.82	1282.5
3167.45	1318.5
3166.07	1327
3164.69	1315.5
3163.32	1321.5
3161.94	1355
3160.56	1365.5
3159.19	1388.5
3157.81	1359.5
3156.43	1388
3155.05	1381.5
3153.67	1380.5
3152.3	1422
3150.92	1420
3149.54	1415.5
3148.16	1443
3146.78	1453
3145.4	1443
3144.01	1464.5
3142.63	1474.5
3141.25	1498
3139.87	1502
3138.49	1500.5
3137.1	1523.5
3135.72	1531
3134.34	1532.5
3132.95	1555.5
3131.57	1543.5
3130.18	1551
3128.8	1548.5
3127.41	1592
3126.03	1587
3124.64	1615
3123.25	1610
3121.87	1635.5
3120.48	1645
3119.09	1614
3117.7	1651.5
3116.32	1659.5
3114.93	1654.5
3113.54	1655.5
3112.15	1641.5
3110.76	1670
3109.37	1691.5
3107.98	1716.5
3106.59	1703.5
3105.2	1697
3103.8	1736.5
3102.41	1739
3101.02	1755
3099.63	1758.5
3098.23	1745.5
3096.84	1776.5
3095.45	1763
3094.05	1790.5
3092.66	1791.5
3091.26	1812.5
3089.87	1799.5
3088.47	1794.5
3087.08	1827.5
3085.68	1860.5
3084.28	1808.5
3082.89	1841.5
3081.49	1850
3080.09	1876
3078.69	1882.5
3077.3	1846.5
3075.9	1851.5
3074.5	1864
3073.1	1837
3071.7	1884
3070.3	1857.5
3068.9	1900
3067.5	1854
3066.09	1921.5
3064.69	1918.5
3063.29	1898.5
3061.89	1912.5
3060.48	1922.5
3059.08	1909
3057.68	1940.5
3056.27	1936.5
3054.87	1947.5
3053.46	1953.5
3052.06	1952
3050.65	1946
3049.25	1934.5
3047.84	1991
3046.44	1971.5
3045.03	1975
3043.62	1960.5
3042.21	1994.5
3040.81	1984.5
3039.4	2007
3037.99	2017
3036.58	2051.5
3035.17	2046
3033.76	2004.5
3032.35	2034
3030.94	2044.5
3029.53	2038.5
3028.12	2075.5
3026.71	2065
3025.29	2067
3023.88	2074
3022.47	2071.5
3021.06	2075
3019.64	2064.5
3018.23	2065.5
3016.82	2091.5
3015.4	2058
3013.99	2094
3012.57	2091
3011.15	2101.5
3009.74	2105.5
3008.32	2113
3006.91	2127.5
3005.49	2128
3004.07	2140.5
3002.65	2136
3001.24	2136
2999.82	2171.5
2998.4	2148.5
2996.98	2148
2995.56	2183.5
2994.14	2175.5
2992.72	2192.5
2991.3	2206.5
2989.88	2184.5
2988.46	2206.5
2987.03	2217.5
2985.61	2259.5
2984.19	2264.5
2982.77	2271
2981.34	2257.5
2979.92	2291
2978.49	2263
2977.07	2296.5
2975.65	2318
2974.22	2349.5
2972.79	2338.5
2971.37	2385.5
2969.94	2390.5
2968.52	2416.5
2967.09	2393
2965.66	2413.5
2964.23	2449.5
2962.81	2454.5
2961.38	2446
2959.95	2455
2958.52	2445
2957.09	2522.5
2955.66	2511
2954.23	2497
2952.8	2525
2951.37	2540
2949.94	2564
2948.5	2579
2947.07	2611
2945.64	2579
2944.21	2602.5
2942.77	2602
2941.34	2628.5
2939.91	2633.5
2938.47	2628
2937.04	2671.5
2935.6	2678.5
2934.17	2684.5
2932.73	2722
2931.29	2723.5
2929.86	2718.5
2928.42	2727.5
2926.98	2735.5
2925.55	2768
2924.11	2787
2922.67	2785.5
2921.23	2773
2919.79	2818
2918.35	2864
2916.91	2836
2915.47	2824.5
2914.03	2855
2912.59	2856
2911.15	2871
2909.71	2889
2908.26	2863.5
2906.82	2880
2905.38	2883.5
2903.94	2908
2902.49	2927.5
2901.05	2918.5
2899.6	2972.5
2898.16	2943.5
2896.71	2901.5
2895.27	2924
2893.82	2967.5
2892.38	2943.5
2890.93	2979
2889.48	2968.5
2888.03	2992.5
2886.59	2992.5
2885.14	2999
2883.69	3002.5
2882.24	3010
2880.79	3017
2879.34	2992
2877.89	3023.5
2876.44	2989.5
2874.99	2970.5
2873.54	2959.5
2872.09	3019
2870.64	2989.5
2869.18	2998
2867.73	3040.5
2866.28	3011.5
2864.83	3011.5
2863.37	3036
2861.92	3041.5
2860.46	3015
2859.01	3026.5
2857.55	3013.5
2856.1	3041
2854.64	3021
2853.19	3035
2851.73	2999.5
2850.27	3027.5
2848.81	2992.5
2847.36	3007
2845.9	3009.5
2844.44	2957.5
2842.98	2930
2841.52	2912
2840.06	2872
2838.6	2867.5
2837.14	2857
2835.68	2811.5
2834.22	2792
2832.76	2774.5
2831.3	2787
2829.83	2733
2828.37	2729
2826.91	2704
2825.44	2677
2823.98	2702.5
2822.52	2661
2821.05	2661.5
2819.59	2699.5
2818.12	2674
2816.66	2644
2815.19	2619.5
2813.72	2628.5
2812.26	2612
2810.79	2603
2809.32	2630
2807.85	2592
2806.38	2561
2804.92	2559.5
2803.45	2546
2801.98	2584
2800.51	2568.5
2799.04	2545.5
2797.57	2560.5
2796.1	2520.5
2794.62	2554
2793.15	2534.5
2791.68	2530
2790.21	2538
2788.73	2540.5
2787.26	2503.5
2785.79	2537.5
2784.31	2521.5
2782.84	2516
2781.36	2557.5
2779.89	2537.5
2778.41	2578.5
2776.94	2506.5
2775.46	2548.5
2773.99	2548.5
2772.51	2580
2771.03	2545
2769.55	2532.5
2768.07	2558.5
2766.6	2557.5
2765.12	2554
2763.64	2584.5
2762.16	2584
2760.68	2560.5
2759.2	2538.5
2757.72	2583.5
2756.24	2548
2754.75	2571
2753.27	2585.5
2751.79	2563.5
2750.31	2539.5
2748.82	2525.5
2747.34	2582
2745.86	2535
2744.37	2540.5
2742.89	2590.5
2741.4	2594.5
2739.92	2561
2738.43	2545
2736.94	2566
2735.46	2530.5
2733.97	2560
2732.48	2541
2731	2526.5
2729.51	2576.5
2728.02	2537
2726.53	2546
2725.04	2537.5
2723.55	2537.5
2722.06	2546
2720.57	2526
2719.08	2528
2717.59	2532.5
2716.1	2535
2714.61	2519
2713.11	2560.5
2711.62	2561.5
2710.13	2585
2708.64	2568
2707.14	2539
2705.65	2501
2704.15	2509.5
2702.66	2473
2701.16	2483.5
2699.67	2479.5
2698.17	2480
2696.67	2541
2695.18	2498
2693.68	2465
2692.18	2473.5
2690.69	2488.5
2689.19	2495
2687.69	2458
2686.19	2474
2684.69	2460
2683.19	2459
2681.69	2463.5
2680.19	2466
2678.69	2426
2677.19	2478.5
2675.68	2438.5
2674.18	2450
2672.68	2433.5
2671.18	2438
2669.67	2430
2668.17	2414.5
2666.66	2395.5
2665.16	2415.5
2663.66	2430
2662.15	2401.5
2660.64	2401.5
2659.14	2368.5
2657.63	2374.5
2656.13	2376.5
2654.62	2413.5
2653.11	2370
2651.6	2388.5
2650.09	2398.5
2648.58	2404.5
2647.08	2359.5
2645.57	2404
2644.06	2377.5
2642.55	2340.5
2641.04	2345.5
2639.52	2377
2638.01	2356.5
2636.5	2340
2634.99	2331.5
2633.48	2295.5
2631.96	2293
2630.45	2302
2628.94	2293.5
2627.42	2323
2625.91	2283.5
2624.39	2252.5
2622.88	2308.5
2621.36	2295.5
2619.85	2283.5
2618.33	2295.5
2616.81	2279
2615.3	2280
2613.78	2253
2612.26	2283
2610.74	2288.5
2609.22	2301
2607.7	2260
2606.18	2257
2604.66	2258.5
2603.14	2222
2601.62	2255.5
2600.1	2277.5
2598.58	2232.5
2597.06	2211.5
2595.54	2199
2594.01	2217.5
2592.49	2210.5
2590.97	2200
2589.44	2165
2587.92	2177.5
2586.39	2175
2584.87	2174
2583.34	2193.5
2581.82	2199
2580.29	2186.5
2578.76	2141
2577.24	2175.5
2575.71	2152
2574.18	2174.5
2572.65	2135.5
2571.13	2146
2569.6	2158.5
2568.07	2145.5
2566.54	2134.5
2565.01	2135.5
2563.48	2136.5
2561.95	2111
2560.42	2114
2558.88	2110
2557.35	2143.5
2555.82	2103.5
2554.29	2121.5
2552.75	2099
2551.22	2097.5
2549.69	2093.5
2548.15	2065
2546.62	2092.5
2545.08	2048.5
2543.55	2064
2542.01	2085.5
2540.47	2050.5
2538.94	2054.5
2537.4	2064
2535.86	2036
2534.33	2033.5
2532.79	2001
2531.25	2022.5
2529.71	2006
2528.17	2000
2526.63	1983
2525.09	1994
2523.55	1990
2522.01	1989.5
2520.47	1975.5
2518.92	1969.5
2517.38	1965
2515.84	1973
2514.3	1955
2512.75	1962
2511.21	1945
2509.67	1951
2508.12	1953.5
2506.58	1935
2505.03	1911
2503.49	1917
2501.94	1894.5
2500.39	1901.5
2498.85	1894.5
2497.3	1890.5
2495.75	1908
2494.2	1922.5
2492.65	1877
2491.11	1889
2489.56	1851
2488.01	1845.5
2486.46	1849.5
2484.91	1834
2483.36	1824.5
2481.8	1811.5
2480.25	1827.5
2478.7	1825.5
2477.15	1802
2475.6	1830
2474.04	1797
2472.49	1790
2470.93	1800.5
2469.38	1782.5
2467.83	1757
2466.27	1746
2464.71	1787
2463.16	1735.5
2461.6	1703.5
2460.05	1750.5
2458.49	1748
2456.93	1727.5
2455.37	1699
2453.81	1743.5
2452.26	1700
2450.7	1732.5
2449.14	1693
2447.58	1700
2446.02	1687.5
2444.46	1696
2442.9	1682.5
2441.33	1663
2439.77	1681.5
2438.21	1664.5
2436.65	1663.5
2435.08	1653
2433.52	1665
2431.96	1656.5
2430.39	1645.5
2428.83	1654
2427.26	1631
2425.7	1637.5
2424.13	1643
2422.56	1598
2421	1608.5
2419.43	1599.5
2417.86	1581.5
2416.3	1612.5
2414.73	1612.5
2413.16	1583.5
2411.59	1577
2410.02	1596
2408.45	1583.5
2406.88	1580
2405.31	1557.5
2403.74	1604.5
2402.17	1573
2400.6	1557.5
2399.02	1572
2397.45	1547.5
2395.88	1550.5
2394.3	1549.5
2392.73	1545.5
2391.16	1536
2389.58	1550
2388.01	1546
2386.43	1512.5
2384.86	1548.5
2383.28	1523.5
2381.7	1529
2380.13	1538
2378.55	1531.5
2376.97	1543.5
2375.39	1525
2373.81	1510.5
2372.23	1525
2370.65	1526
2369.07	1525.5
2367.49	1486
2365.91	1489
2364.33	1490
2362.75	1492
2361.17	1464
2359.59	1482.5
2358.01	1473
2356.42	1445.5
2354.84	1472.5
2353.25	1472
2351.67	1481.5
2350.09	1458
2348.5	1439
2346.92	1473.5
2345.33	1465
2343.74	1436
2342.16	1452
2340.57	1471.5
2338.98	1462
2337.39	1414
2335.81	1418.5
2334.22	1424.5
2332.63	1457
2331.04	1426.5
2329.45	1432
2327.86	1430.5
2326.27	1422
2324.68	1409
2323.09	1398.5
2321.49	1402.5
2319.9	1389.5
2318.31	1395
2316.72	1393
2315.12	1377.5
2313.53	1361
2311.93	1373
2310.34	1386.5
2308.74	1349
2307.15	1357
2305.55	1355
2303.96	1366.5
2302.36	1362
2300.76	1342.5
2299.17	1336.5
2297.57	1343
2295.97	1322
2294.37	1313
2292.77	1330
2291.17	1320.5
2289.57	1327
2287.97	1307.5
2286.37	1289.5
2284.77	1276.5
2283.17	1316
2281.57	1297.5
2279.96	1257.5
2278.36	1263.5
2276.76	1277
2275.15	1292.5
2273.55	1280
2271.95	1264.5
2270.34	1257.5
2268.74	1254.5
2267.13	1278.5
2265.52	1235.5
2263.92	1265.5
2262.31	1228
2260.7	1232.5
2259.1	1249.5
2257.49	1225
2255.88	1238
2254.27	1227
2252.66	1242.5
2251.05	1228
2249.44	1239.5
2247.83	1220
2246.22	1214.5
2244.61	1233
2243	1223
2241.39	1220.5
2239.77	1204
2238.16	1183
2236.55	1201
2234.93	1194
2233.32	1155
2231.7	1169.5
2230.09	1180
2228.47	1159.5
2226.86	1143
2225.24	1160
2223.63	1162
2222.01	1161.5
2220.39	1124
2218.77	1123.5
2217.16	1136.5
2215.54	1115
2213.92	1115.5
2212.3	1126
2210.68	1112.5
2209.06	1106.5
2207.44	1104
2205.82	1109
2204.19	1104
2202.57	1099
2200.95	1094
2199.33	1095.5
2197.7	1087
2196.08	1087.5
2194.46	1092.5
2192.83	1091
2191.21	1068.5
2189.58	1086.5
2187.96	1074
2186.33	1075.5
2184.7	1079
2183.08	1088
2181.45	1058.5
2179.82	1059.5
2178.19	1048
2176.57	1062.5
2174.94	1046.5
2173.31	1051
2171.68	1054.5
2170.05	1047
2168.42	1044.5
2166.79	1037.5
2165.16	1025
2163.52	1044
2161.89	1049
2160.26	1020
2158.63	997.5
2156.99	1014.5
2155.36	1002.5
2153.73	1010
2152.09	998
2150.46	1005.5
2148.82	987
2147.18	979.5
2145.55	972.5
2143.91	980.5
2142.27	962
2140.64	986
2139	977
2137.36	959.5
2135.72	969.5
2134.08	953
2132.44	962
2130.8	953.5
2129.16	947
2127.52	934
2125.88	937.5
2124.24	928.5
2122.6	933
2120.95	928
2119.31	894
2117.67	912
2116.02	904.5
2114.38	899
2112.74	877.5
2111.09	886
2109.45	865
2107.8	880.5
2106.15	906.5
2104.51	887
2102.86	852
2101.21	888
2099.56	858.5
2097.92	865
2096.27	885.5
2094.62	875
2092.97	854.5
2091.32	864.5
2089.67	860
2088.02	877.5
2086.37	878.5
2084.72	848.5
2083.06	843
2081.41	859.5
2079.76	863.5
2078.1	828.5
2076.45	850.5
2074.8	825.5
2073.14	820.5
2071.49	840
2069.83	826.5
2068.18	829.5
2066.52	829.5
2064.86	837
2063.21	846.5
2061.55	817
2059.89	817
2058.23	800
2056.57	820.5
2054.92	825
2053.26	807.5
2051.6	808.5
2049.94	816.5
2048.27	809
2046.61	793.5
2044.95	834.5
2043.29	785.5
2041.63	781
2039.97	812.5
2038.3	803
2036.64	782
2034.97	789
2033.31	780
2031.64	758.5
2029.98	766.5
2028.31	755
2026.65	766
2024.98	753
2023.31	753.5
2021.65	755
2019.98	747.5
2018.31	741.5
2016.64	743
2014.97	738.5
2013.3	726
2011.63	709.5
2009.96	721
2008.29	742.5
2006.62	731.5
2004.95	725
2003.28	721
2001.6	732.5
1999.93	716.5
1998.26	722.5
1996.58	707
1994.91	720
1993.24	714.5
1991.56	727
1989.89	710
1988.21	679
1986.53	690
1984.86	690.5
1983.18	685.5
1981.5	680.5
1979.82	706.5
1978.15	688.5
1976.47	677.5
1974.79	685
1973.11	673
1971.43	678.5
1969.75	675
1968.07	675
1966.38	678
1964.7	674.5
1963.02	670.5
1961.34	650.5
1959.66	645.5
1957.97	651.5
1956.29	647
1954.6	661
1952.92	660.5
1951.23	651
1949.55	645.5
1947.86	642
1946.18	633.5
1944.49	635.5
1942.8	639
1941.11	630
1939.43	635
1937.74	614.5
1936.05	621.5
1934.36	625.5
1932.67	618
1930.98	626.5
1929.29	634.5
1927.6	621
1925.91	613
1924.21	599.5
1922.52	593.5
1920.83	608
1919.14	595.5
1917.44	582.5
1915.75	606.5
1914.05	597.5
1912.36	600.5
1910.66	586.5
1908.97	582.5
1907.27	594
1905.58	573.5
1903.88	583
1902.18	566
1900.48	589
1898.79	573
1897.09	579.5
1895.39	563.5
1893.69	554
1891.99	546.5
1890.29	555.5
1888.59	556.5
1886.89	542
1885.18	541
1883.48	550
1881.78	542.5
1880.08	546.5
1878.37	543
1876.67	539
1874.96	542
1873.26	527
1871.55	529.5
1869.85	534
1868.14	521
1866.44	529.5
1864.73	512.5
1863.02	507
1861.32	516.5
1859.61	508.5
1857.9	511
1856.19	510.5
1854.48	505
1852.77	498.5
1851.06	507
1849.35	505.5
1847.64	497
1845.93	504.5
1844.21	506.5
1842.5	495.5
1840.79	504
1839.08	502
1837.36	512
1835.65	487
1833.93	485
1832.22	493.5
1830.5	491
1828.79	483.5
1827.07	490
1825.36	481.5
1823.64	481.5
1821.92	491
1820.2	469
1818.48	469
1816.77	476.5
1815.05	460.5
1813.33	474
1811.61	459.5
1809.89	471
1808.16	461
1806.44	457
1804.72	463.5
1803	467
1801.28	465.5
1799.55	466
1797.83	464.5
1796.11	462
1794.38	461.5
1792.66	460.5
1790.93	448
1789.21	436
1787.48	454.5
1785.75	444
1784.03	450
1782.3	451.5
1780.57	448
1778.84	432
1777.11	442.5
1775.38	441.5
1773.66	449
1771.93	448
1770.19	471.5
1768.46	435.5
1766.73	452.5
1765	464
1763.27	468
1761.54	457
1759.8	472
1758.07	486
1756.34	508.5
1754.6	526
1752.87	519.5
1751.13	539
1749.4	540.5
1747.66	538
1745.92	528
1744.19	534.5
1742.45	534
1740.71	519.5
1738.97	507
1737.23	495.5
1735.49	487.5
1733.75	476.5
1732.01	481.5
1730.27	442
1728.53	439.5
1726.79	460
1725.05	445
1723.31	438
1721.57	424.5
1719.82	429.5
1718.08	417
1716.34	406.5
1714.59	403.5
1712.85	416.5
1711.1	410
1709.36	403
1707.61	411
1705.86	406
1704.12	406.5
1702.37	405
1700.62	411
1698.87	389.5
1697.12	399
1695.37	415
1693.62	402
1691.87	389
1690.12	400.5
1688.37	401
1686.62	389
1684.87	388
1683.12	404
1681.36	410
1679.61	404.5
1677.86	399.5
1676.1	427
1674.35	427.5
1672.59	445
1670.84	464
1669.08	491.5
1667.33	513
1665.57	573.5
1663.81	602.5
1662.06	669.5
1660.3	715
1658.54	751
1656.78	746
1655.02	737
1653.26	701.5
1651.5	645
1649.74	616.5
1647.98	552
1646.22	516
1644.46	500
1642.7	486.5
1640.93	424
1639.17	419
1637.41	410.5
1635.64	401.5
1633.88	385.5
1632.11	381
1630.35	398.5
1628.58	387
1626.81	385
1625.05	367
1623.28	366.5
1621.51	366.5
1619.75	363.5
1617.98	370
1616.21	353
1614.44	363
1612.67	349.5
1610.9	348
1609.13	347
1607.36	359.5
1605.58	350
1603.81	361.5
1602.04	355.5
1600.27	349.5
1598.49	355
1596.72	330
1594.95	349
1593.17	347.5
1591.4	355
1589.62	352
1587.84	344
1586.07	348
1584.29	329.5
1582.51	344
1580.74	359
1578.96	356
1577.18	345
1575.4	360
1573.62	336.5
1571.84	345
1570.06	334.5
1568.28	336.5
1566.5	347.5
1564.72	351
1562.93	334
1561.15	345.5
1559.37	344.5
1557.58	347
1555.8	345.5
1554.02	361
1552.23	340.5
1550.45	337.5
1548.66	347.5
1546.87	340
1545.09	346
1543.3	333
1541.51	342.5
1539.72	345.5
1537.94	336.5
1536.15	337.5
1534.36	330
1532.57	335
1530.78	336.5
1528.99	352
1527.2	341
1525.4	345
1523.61	351.5
1521.82	340
1520.03	347.5
1518.23	336.5
1516.44	346
1514.65	348.5
1512.85	336
1511.06	335
1509.26	366.5
1507.46	366.5
1505.67	373
1503.87	364.5
1502.07	374
1500.28	374
1498.48	381.5
1496.68	387
1494.88	381
1493.08	388.5
1491.28	405
1489.48	413
1487.68	427.5
1485.88	451.5
1484.08	458
1482.27	474
1480.47	492
1478.67	539.5
1476.86	550.5
1475.06	598.5
1473.25	634
1471.45	666
1469.64	737
1467.84	789
1466.03	864.5
1464.23	898
1462.42	977.5
1460.61	1026.5
1458.8	1058
1456.99	1114.5
1455.18	1125
1453.37	1163
1451.56	1200.5
1449.75	1232
1447.94	1300
1446.13	1335
1444.32	1395
1442.51	1434
1440.7	1430.5
1438.88	1425
1437.07	1317.5
1435.26	1220
1433.44	1078
1431.63	945.5
1429.81	830.5
1427.99	751
1426.18	657.5
1424.36	626.5
1422.54	600.5
1420.73	557.5
1418.91	550
1417.09	514
1415.27	493.5
1413.45	470.5
1411.63	439.5
1409.81	441
1407.99	419
1406.17	417.5
1404.35	419.5
1402.53	394
1400.7	390.5
1398.88	376.5
1397.06	374.5
1395.23	393.5
1393.41	380.5
1391.58	371
1389.76	368.5
1387.93	373.5
1386.11	365.5
1384.28	364
1382.45	379
1380.62	388
1378.8	378
1376.97	401.5
1375.14	395
1373.31	412.5
1371.48	416
1369.65	412
1367.82	420
1365.99	417.5
1364.16	413
1362.32	403.5
1360.49	394.5
1358.66	407
1356.82	399.5
1354.99	396.5
1353.16	407
1351.32	406
1349.48	410.5
1347.65	396.5
1345.81	401
1343.98	408
1342.14	415.5
1340.3	428.5
1338.46	433
1336.62	440.5
1334.79	441.5
1332.95	467
1331.11	470.5
1329.27	498.5
1327.42	525
1325.58	554.5
1323.74	579.5
1321.9	602.5
1320.06	617
1318.21	663.5
1316.37	712.5
1314.53	761
1312.68	805.5
1310.84	882
1308.99	932
1307.15	977
1305.3	1046.5
1303.45	1089
1301.61	1094.5
1299.76	1123
1297.91	1099
1296.06	1011.5
1294.21	952.5
1292.36	831.5
1290.51	794
1288.66	733
1286.81	692
1284.96	665
1283.11	672.5
1281.26	670.5
1279.4	682
1277.55	675
1275.7	678
1273.84	660.5
1271.99	692
1270.13	698
1268.28	699
1266.42	698.5
1264.56	688.5
1262.71	666.5
1260.85	660.5
1258.99	635
1257.13	639
1255.27	609
1253.41	594
1251.56	575
1249.7	537.5
1247.83	501.5
1245.97	488.5
1244.11	476
1242.25	465.5
1240.39	473.5
1238.52	448.5
1236.66	454
1234.8	415
1232.93	424.5
1231.07	423.5
1229.2	407.5
1227.34	405
1225.47	394
1223.6	391
1221.74	388.5
1219.87	390.5
1218	376
1216.13	369
1214.26	385.5
1212.39	373.5
1210.53	368.5
1208.65	377.5
1206.78	373.5
1204.91	362.5
1203.04	365
1201.17	366
1199.3	372
1197.42	366.5
1195.55	367
1193.68	372.5
1191.8	388.5
1189.93	372.5
1188.05	374
1186.17	373
1184.3	385.5
1182.42	375.5
1180.54	371
1178.67	373
1176.79	391
1174.91	385.5
1173.03	381
1171.15	385.5
1169.27	377.5
1167.39	384.5
1165.51	378
1163.63	378
1161.75	388.5
1159.86	372
1157.98	382
1156.1	366.5
1154.21	383
1152.33	403.5
1150.44	377.5
1148.56	397
1146.67	406
1144.79	419.5
1142.9	408.5
1141.01	416.5
1139.12	420.5
1137.24	449
1135.35	479
1133.46	540.5
1131.57	605
1129.68	628.5
1127.79	638.5
1125.9	611
1124.01	601.5
1122.12	582.5
1120.22	575
1118.33	562
1116.44	569
1114.54	546
1112.65	551.5
1110.75	543.5
1108.86	545.5
1106.96	561.5
1105.07	592
1103.17	607
1101.27	634.5
1099.38	646.5
1097.48	696
1095.58	717.5
1093.68	733.5
1091.78	775.5
1089.88	777
1087.98	806.5
1086.08	824.5
1084.18	857
1082.28	809.5
1080.38	807
1078.47	826
1076.57	822
1074.67	780
1072.76	791
1070.86	799
1068.95	824
1067.05	854.5
1065.14	873
1063.24	899
1061.33	831.5
1059.42	771.5
1057.51	711
1055.6	659
1053.7	637.5
1051.79	614.5
1049.88	596
1047.97	601
1046.06	552
1044.14	583
1042.23	581
1040.32	578
1038.41	573.5
1036.5	570
1034.58	562.5
1032.67	569
1030.75	555
1028.84	568
1026.92	561.5
1025.01	560.5
1023.09	550.5
1021.17	569.5
1019.26	566
1017.34	551
1015.42	555
1013.5	546
1011.58	531.5
1009.66	518
1007.74	512.5
1005.82	512.5
1003.9	514
1001.98	494
1000.06	497
998.134	502.5
996.212	517.5
994.288	524
992.364	507.5
990.44	523.5
988.515	526
986.589	556
984.663	573
982.737	555
980.81	587.5
978.883	616.5
976.955	628
975.027	640
973.098	664
971.169	640
969.239	643.5
967.308	637.5
965.378	653.5
963.447	648
961.516	638
959.583	629
957.65	636
955.718	632
953.784	656
951.85	634
949.916	643
947.981	661
946.045	651.5
944.109	664.5
942.173	668
940.236	681.5
938.298	687
936.36	685
934.422	663.5
932.484	652
930.544	661.5
928.604	638
926.664	636
924.724	635.5
922.782	643.5
920.84	650.5
918.898	642
916.955	656
915.012	634
913.068	648.5
911.124	631.5
909.18	613.5
907.235	658.5
905.289	649.5
903.343	665
901.397	665.5
899.45	666
897.502	693
895.554	724.5
893.605	751
891.657	778
889.707	773.5
887.758	761.5
885.807	768
883.856	744.5
881.905	735
879.953	782.5
878.001	762.5
876.048	778
874.094	783
872.14	796.5
870.186	805.5
868.232	785
866.276	769
864.321	754.5
862.365	765
860.408	731.5
858.451	713
856.493	741
854.535	738
852.576	735
850.617	727
848.658	737.5
846.698	726.5
844.737	722.5
842.776	724.5
840.814	726
838.852	706.5
836.89	705
834.927	662
832.963	644
830.999	639.5
829.035	615
827.07	608.5
825.105	590.5
823.139	574
821.172	557
819.206	542.5
817.238	549.5
815.27	541
813.301	524
811.333	527.5
809.363	508.5
807.394	496.5
805.424	496
803.453	465
801.482	461.5
799.509	426.5
797.538	442
795.565	439.5
793.592	424
791.618	444.5
789.643	417.5
787.669	421.5
785.693	411.5
783.718	421.5
781.742	424.5
779.765	424.5
777.788	412
775.811	430.5
773.832	425
771.853	424.5
769.875	421
767.895	434.5
765.915	419.5
763.934	413.5
761.953	426.5
759.972	409.5
757.99	420.5
756.007	414
754.024	413
752.041	416
750.056	415
748.072	426
746.087	431
744.102	420
742.116	422
740.13	450
738.143	434.5
736.155	431
734.167	443.5
732.179	440.5
730.19	435
728.2	436.5
726.21	457
724.22	445
722.229	453.5
720.237	432
718.246	432.5
716.253	409.5
714.26	415
712.267	421
710.273	397.5
708.279	413.5
706.284	407
704.289	394
702.293	398.5
700.296	395.5
698.3	394.5
696.303	386.5
694.305	389
692.307	386
690.307	400.5
688.308	384
686.309	387
684.308	379
682.308	395
680.306	376.5
678.304	392.5
676.302	391
674.3	386.5
672.296	397
670.293	400
668.289	407.5
666.284	389.5
664.278	404.5
662.273	400.5
660.266	409.5
658.26	391
656.252	409
654.244	415
652.237	403.5
650.227	408.5
648.218	422
646.209	410
644.198	432.5
642.188	416.5
640.177	429
638.165	440.5
636.153	437.5
634.14	427
632.128	448.5
630.113	433.5
628.099	439.5
626.085	444.5
624.07	462.5
622.054	441
620.038	482
618.021	465.5
616.004	466
613.986	467.5
611.968	485
609.949	482.5
607.93	506
605.911	508
603.891	500
601.87	488.5
599.848	477
597.827	488.5
595.805	497.5
593.782	478
591.759	467
589.735	484
587.711	471.5
585.687	460.5
583.661	463
581.636	471
579.609	457
577.583	462
575.555	458
573.527	450
571.5	456.5
569.471	448.5
567.441	449
565.412	455
563.382	464.5
561.351	471
559.32	455
557.289	471
555.257	473
553.223	494.5
551.19	500
549.157	497
547.122	519.5
545.088	533
543.053	539.5
541.017	567.5
538.981	609
536.943	641.5
534.907	729
532.869	842
530.831	1066.5
528.792	1428
526.752	2077.5
524.713	2994
522.673	3938
520.632	4062
518.591	3438
516.549	2561.5
514.507	1807.5
512.464	1309
510.42	996
508.377	828
506.332	729.5
504.288	668
502.242	654.5
500.196	614
498.15	610
496.104	591
494.056	585.5
492.008	590.5
489.96	600.5
487.911	566
485.862	578.5
483.812	583.5
481.761	575
479.71	580.5
477.659	578
475.607	579.5
473.555	565
471.502	566.5
469.448	572.5
467.395	558
465.34	570
463.285	557.5
461.23	578
459.174	573.5
457.118	569.5
455.061	575
453.003	586
450.945	577.5
448.887	592
446.828	590.5
444.768	607.5
442.708	590
440.647	588
438.587	613.5
436.525	609
434.463	623.5
432.4	626.5
430.337	623.5
428.274	637
426.21	636
424.145	630.5
422.079	625.5
420.014	616
417.948	619
415.882	633
413.814	631
411.746	657.5
409.679	671.5
407.609	652
405.54	648.5
403.47	654.5
401.401	668.5
399.329	647
397.258	655
395.187	652.5
393.114	648
391.041	651.5
388.968	646
386.895	668
384.82	658.5
382.745	680
380.67	674
378.594	678
376.517	681
374.44	672.5
372.363	682
370.286	683
368.207	674
366.128	684
364.049	689.5
361.969	684.5
359.888	696.5
357.807	684.5
355.725	714
353.643	726.5
351.561	702
349.477	722.5
347.394	716
345.31	702.5
343.226	721
341.141	738
339.055	726
336.968	737
334.882	746
332.795	733
330.707	739
328.618	762.5
326.53	747
324.44	757
322.351	766.5
320.26	789.5
318.17	799.5
316.078	836
313.987	837
311.895	859
309.802	889.5
307.708	882.5
305.614	927
303.52	923.5
301.425	950
299.329	930.5
297.233	897.5
295.137	911.5
293.039	914.5
290.942	921.5
288.844	918
286.745	895
284.647	900.5
282.546	902
280.446	940.5
278.346	926
276.245	927
274.143	935
272.041	953.5
269.939	956.5
267.835	964.5
265.731	965
263.627	981.5
261.522	1000
259.417	986
257.311	997.5
255.204	1004.5
253.098	1025
250.99	1020
248.882	1014
246.774	1071.5
244.664	1080.5
242.555	1100.5
240.445	1069
238.334	1092
236.223	1116.5
234.112	1112
232	1142.5
229.888	1136
227.775	1152
225.661	1168.5
223.546	1178
221.431	1200
219.316	1214.5
217.201	1182.5
215.084	1217.5
212.967	1206
210.85	1243.5
208.732	1236.5
206.614	1226.5
204.495	1225.5
202.375	1220
200.256	1220
198.135	1221
196.014	1218
193.893	1212
191.771	1182
189.648	1190
187.525	1219.5
185.401	1208
183.277	1214
181.152	1199
179.027	1208.5
176.901	1231
174.775	1236
172.648	1229.5
170.521	1287
168.393	1261
166.265	1268.5
164.136	1317
162.007	1321.5
159.876	1355.5
157.746	1349
155.615	1384
153.483	1400
151.351	1456
149.219	1465.5
147.086	1495.5
144.952	1539.5
142.818	1580
140.684	1628
138.548	1644
136.413	1698
134.276	1754.5
132.139	1753
130.002	1853.5
127.864	1895
125.725	1939.5
123.587	1997.5
121.447	2056.5
119.307	2138.5
117.166	2199
115.026	2282
112.885	2347
110.743	2453.5
108.6	2517
106.456	2565
104.313	2608.5
102.169	2560
100.023	2520
97.8789	2392.5
95.7328	2204
93.5869	1945.5
91.4392	1623.5
89.2919	1366
87.1447	1078
84.9959	833.5
