3528.51	64.5
3527.23	62
3525.95	66.5
3524.67	79.5
3523.39	69
3522.1	69.5
3520.82	73
3519.54	78
3518.26	76
3516.97	80.5
3515.69	80.5
3514.4	80.5
3513.12	71
3511.84	80
3510.55	89.5
3509.26	85
3507.98	75.5
3506.69	86
3505.41	82
3504.12	83.5
3502.83	86
3501.54	86
3500.26	91
3498.97	90
3497.68	87.5
3496.39	90
3495.1	89.5
3493.81	95
3492.52	103
3491.23	99.5
3489.94	94.5
3488.65	100
3487.36	106.5
3486.07	114.5
3484.78	112.5
3483.49	98
3482.19	112
3480.9	114
3479.61	102
3478.31	124.5
3477.02	114.5
3475.73	125
3474.43	122.5
3473.14	118
3471.84	120.5
3470.54	124
3469.25	123.5
3467.95	126.5
3466.66	128.5
3465.36	127
3464.06	131.5
3462.76	134.5
3461.46	134
3460.17	127.5
3458.87	127
3457.57	127.5
3456.27	133
3454.97	132.5
3453.67	134
3452.37	150.5
3451.07	142
3449.77	144.5
3448.47	150.5
3447.16	144.5
3445.86	149.5
3444.56	157
3443.26	154.5
3441.95	152
3440.65	166
3439.35	156.5
3438.04	169
3436.74	165.5
3435.43	172
3434.13	166
3432.82	178.5
3431.52	188
3430.21	184
3428.9	190
3427.6	184.5
3426.29	197.5
3424.98	187.5
3423.67	205
3422.36	204
3421.06	207.5
3419.75	215
3418.44	211
3417.13	214
3415.82	222
3414.51	211
3413.2	220
3411.88	221
3410.57	222
3409.26	221
3407.95	220.5
3406.64	230.5
3405.32	230.5
3404.01	237
3402.7	233.5
3401.38	227.5
3400.07	241
3398.75	240
3397.44	245
3396.12	243
3394.81	251
3393.49	247
3392.18	247
3390.86	253.5
3389.54	260.5
3388.23	253
3386.91	265
3385.59	272
3384.27	266
3382.95	263.5
3381.63	282.5
3380.31	283.5
3378.99	270.5
3377.67	275
3376.35	284
3375.03	283.5
3373.71	290.5
3372.39	284.5
3371.07	280
3369.75	291.5
3368.42	293.5
3367.1	281
3365.78	307.5
3364.45	298
3363.13	292
3361.81	306
3360.48	299
3359.16	296.5
3357.83	303
3356.51	309.5
3355.18	307
3353.85	305.5
3352.53	322
3351.2	326.5
3349.87	313.5
3348.54	317.5
3347.22	313
3345.89	316
3344.56	321
3343.23	321
3341.9	319
3340.57	324.5
3339.24	316
3337.91	324
3336.58	334.5
3335.25	336.5
3333.92	335
3332.58	342
3331.25	341.5
3329.92	324.5
3328.59	333
3327.25	341
3325.92	339.5
3324.58	342
3323.25	350
3321.92	354.5
3320.58	357.5
3319.25	350.5
3317.91	348
3316.57	351.5
3315.24	358.5
3313.9	358
3312.56	352
3311.23	356.5
3309.89	370
3308.55	372.5
3307.21	381.5
3305.87	374
3304.53	363.5
3303.19	366.5
3301.85	368.5
3300.51	371.5
3299.17	364
3297.83	384.5
3296.49	375
3295.15	369.5
3293.81	384
3292.46	383.5
3291.12	376
3289.78	379
3288.43	391
3287.09	392
3285.75	392
3284.4	393.5
3283.06	390
3281.71	397
3280.37	382
3279.02	400.5
3277.67	403
3276.33	391
3274.98	397
3273.63	408.5
3272.28	408.5
3270.94	411
3269.59	419
3268.24	422.5
3266.89	425.5
3265.54	426.5
3264.19	437
3262.84	434
3261.49	463.5
3260.14	465
3258.79	455.5
3257.44	467.5
3256.08	469.5
3254.73	478
3253.38	483
3252.03	509
3250.67	519
3249.32	523
3247.96	543
3246.61	546.5
3245.26	583
3243.9	589.5
3242.54	597
3241.19	603
3239.83	632
3238.48	642
3237.12	660.5
3235.76	664.5
3234.41	700
3233.05	703.5
3231.69	715.5
3230.33	731
3228.97	737
3227.61	763.5
3226.25	784.5
3224.89	787
3223.53	816.5
3222.17	824.5
3220.81	817.5
3219.45	834
3218.09	848
3216.72	858
3215.36	874.5
3214	894.5
3212.63	893.5
3211.27	897.5
3209.91	916.5
3208.54	896
3207.18	915
3205.81	918
3204.45	916.5
3203.08	927
3201.71	941.5
3200.35	926.5
3198.98	964
3197.61	959.5
3196.25	962
3194.88	972.5
3193.51	975.5
3192.14	972.5
3190.77	980
3189.4	1000
3188.03	979.5
3186.66	986.5
3185.29	992
3183.92	987.5
3182.55	1009.5
3181.18	1021
3179.81	1001
3178.44	1023
3177.06	1024.5
3175.69	1052.5
3174.32	1044
3172.94	1046
3171.57	1063.5
3170.2	1058
3168.82	1068
3167.45	1068
3166.07	1087
3164.69	1094
3163.32	1087
3161.94	1110
3160.56	1096
3159.19	1102
3157.81	1137.5
3156.43	1155.5
3155.05	1132.5
3153.67	1157
3152.3	1175.5
3150.92	1157.5
3149.54	1188.5
3148.16	1172.5
3146.78	1173.5
3145.4	1189
3144.01	1201
3142.63	1242.5
3141.25	1217.5
3139.87	1228.5
3138.49	1239
3137.1	1245.5
3135.72	1254
3134.34	1267
3132.95	1275
3131.57	1278.5
3130.18	1296
3128.8	1298
3127.41	1319.5
3126.03	1322.5
3124.64	1320.5
3123.25	1344
3121.87	1328
3120.48	1354.5
3119.09	1355
3117.7	1366.5
3116.32	1387.5
3114.93	1377
3113.54	1383.5
3112.15	1394
3110.76	1385
3109.37	1402
3107.98	1414
3106.59	1424
3105.2	1416
3103.8	1408.5
3102.41	1425
3101.02	1468.5
3099.63	1472
3098.23	1455
3096.84	1470
3095.45	1483.5
3094.05	1492.5
3092.66	1474.5
3091.26	1501.5
3089.87	1509
3088.47	1513
3087.08	1503.5
3085.68	1508.5
3084.28	1518
3082.89	1500.5
3081.49	1550
3080.09	1509
3078.69	1520
3077.3	1535.5
3075.9	1554.5
3074.5	1507.5
3073.1	1537
3071.7	1564.5
3070.3	1541.5
3068.9	1528
3067.5	1559
3066.09	1552
3064.69	1571
3063.29	1588
3061.89	1573.5
3060.48	1592.5
3059.08	1551
3057.68	1602.5
3056.27	1597
3054.87	1605
3053.46	1609
3052.06	1626.5
3050.65	1622
3049.25	1643.5
3047.84	1618
3046.44	1641.5
3045.03	1636
3043.62	1631.5
3042.21	1639
3040.81	1612.5
3039.4	1632
3037.99	1649.5
3036.58	1676.5
3035.17	1673.5
3033.76	1679.5
3032.35	1692.5
3030.94	1700
3029.53	1660.5
3028.12	1667.5
3026.71	1678
3025.29	1703
3023.88	1726
3022.47	1712.5
3021.06	1707.5
3019.64	1739.5
3018.23	1711
3016.82	1722
3015.4	1733.5
3013.99	1721
3012.57	1726
3011.15	1760.5
3009.74	1731.5
3008.32	1753.5
3006.91	1725.5
3005.49	1762.5
3004.07	1747.5
3002.65	1791.5
3001.24	1779
2999.82	1793
2998.4	1822
2996.98	1814.5
2995.56	1828
2994.14	1828
2992.72	1816.5
2991.3	1824.5
2989.88	1857.5
2988.46	1837.5
2987.03	1852
2985.61	1860
2984.19	1900
2982.77	1877
2981.34	1903
2979.92	1919
2978.49	1927.5
2977.07	1937
2975.65	1938.5
2974.22	1953.5
2972.79	1977.5
2971.37	1969.5
2969.94	2013
2968.52	2032
2967.09	2032
2965.66	2030.5
2964.23	2037.5
2962.81	2040.5
2961.38	2065
2959.95	2072
2958.52	2102.5
2957.09	2116.5
2955.66	2113
2954.23	2136.5
2952.8	2111.5
2951.37	2174
2949.94	2164.5
2948.5	2176
2947.07	2191.5
2945.64	2158
2944.21	2198
2942.77	2248.5
2941.34	2206
2939.91	2250
2938.47	2263.5
2937.04	2265
2935.6	2270
2934.17	2306.5
2932.73	2323.5
2931.29	2342
2929.86	2349.5
2928.42	2368
2926.98	2365.5
2925.55	2375
2924.11	2396
2922.67	2433.5
2921.23	2429
2919.79	2464
2918.35	2459
2916.91	2440.5
2915.47	2412.5
2914.03	2444
2912.59	2466.5
2911.15	2463.5
2909.71	2465
2908.26	2466.5
2906.82	2515
2905.38	2491.5
2903.94	2522.5
2902.49	2532.5
2901.05	2512
2899.6	2525
2898.16	2570
2896.71	2543
2895.27	2560.5
2893.82	2556.5
2892.38	2565.5
2890.93	2606.5
2889.48	2588
2888.03	2566
2886.59	2584.5
2885.14	2580
2883.69	2656
2882.24	2586.5
2880.79	2611
2879.34	2593
2877.89	2599.5
2876.44	2605
2874.99	2574.5
2873.54	2624
2872.09	2581.5
2870.64	2563
2869.18	2570
2867.73	2597.5
2866.28	2591.5
2864.83	2603
2863.37	2588
2861.92	2593.5
2860.46	2599.5
2859.01	2603
2857.55	2637
2856.1	2604
2854.64	2616
2853.19	2644.5
2851.73	2619
2850.27	2576.5
2848.81	2596
2847.36	2579.5
2845.9	2542
2844.44	2561.5
2842.98	2500
2841.52	2524
2840.06	2487
2838.6	2422
2837.14	2388
2835.68	2382.5
2834.22	2377.5
2832.76	2328
2831.3	2317.5
2829.83	2279
2828.37	2297
2826.91	2252
2825.44	2255.5
2823.98	2222.5
2822.52	2231
2821.05	2194.5
2819.59	2214.5
2818.12	2195
2816.66	2182
2815.19	2172
2813.72	2151
2812.26	2161.5
2810.79	2102.5
2809.32	2140
2807.85	2153.5
2806.38	2145.5
2804.92	2128
2803.45	2098
2801.98	2097.5
2800.51	2093.5
2799.04	2110.5
2797.57	2091.5
2796.1	2086
2794.62	2065
2793.15	2071.5
2791.68	2130.5
2790.21	2081.5
2788.73	2068.5
2787.26	2114
2785.79	2068.5
2784.31	2101.5
2782.84	2085.5
2781.36	2066
2779.89	2092
2778.41	2069
2776.94	2085.5
2775.46	2107.5
2773.99	2111
2772.51	2077.5
2771.03	2092.5
2769.55	2105.5
2768.07	2118
2766.6	2101.5
2765.12	2093.5
2763.64	2122.5
2762.16	2117
2760.68	2136.5
2759.2	2135
2757.72	2113.5
2756.24	2124.5
2754.75	2111
2753.27	2080.5
2751.79	2090
2750.31	2149
2748.82	2116
2747.34	2109
2745.86	2088
2744.37	2106
2742.89	2116.5
2741.4	2078
2739.92	2098
2738.43	2126.5
2736.94	2087.5
2735.46	2071.5
2733.97	2116
2732.48	2075.5
2731	2137
2729.51	2137
2728.02	2094.5
2726.53	2120
2725.04	2074
2723.55	2109.5
2722.06	2092.5
2720.57	2105.5
2719.08	2098
2717.59	2114.5
2716.1	2103.5
2714.61	2121.5
2713.11	2101.5
2711.62	2110
2710.13	2089
2708.64	2108.5
2707.14	2107
2705.65	2090.5
2704.15	2072.5
2702.66	2078
2701.16	2081
2699.67	2062.5
2698.17	2066.5
2696.67	2071
2695.18	2027.5
2693.68	2081
2692.18	2068
2690.69	2049.5
2689.19	2023.5
2687.69	2023
2686.19	2003.5
2684.69	2013
2683.19	2011
2681.69	1986.5
2680.19	2034
2678.69	2015
2677.19	2008.5
2675.68	2017
2674.18	2017.5
2672.68	1974.5
2671.18	1997
2669.67	1993.5
2668.17	1981
2666.66	1984.5
2665.16	2007
2663.66	2008.5
2662.15	2012.5
2660.64	2001
2659.14	1971
2657.63	1979.5
2656.13	1975.5
2654.62	1977
2653.11	1995.5
2651.6	1964.5
2650.09	1977.5
2648.58	1972
2647.08	1947.5
2645.57	1941.5
2644.06	1966
2642.55	1961.5
2641.04	1931.5
2639.52	1934
2638.01	1905
2636.5	1922.5
2634.99	1909
2633.48	1886
2631.96	1934
2630.45	1876
2628.94	1873.5
2627.42	1890.5
2625.91	1883.5
2624.39	1878.5
2622.88	1877.5
2621.36	1882
2619.85	1886
2618.33	1888.5
2616.81	1898
2615.3	1887
2613.78	1870.5
2612.26	1877.5
2610.74	1867.5
2609.22	1884.5
2607.7	1865
2606.18	1853
2604.66	1877.5
2603.14	1846
2601.62	1853.5
2600.1	1851
2598.58	1800
2597.06	1817
2595.54	1843
2594.01	1849
2592.49	1815
2590.97	1816
2589.44	1798.5
2587.92	1769
2586.39	1797
2584.87	1798.5
2583.34	1798.5
2581.82	1780.5
2580.29	1823
2578.76	1782
2577.24	1816
2575.71	1806.5
2574.18	1757.5
2572.65	1756
2571.13	1759
2569.6	1763
2568.07	1768
2566.54	1760
2565.01	1761.5
2563.48	1755.5
2561.95	1763
2560.42	1735
2558.88	1766
2557.35	1745
2555.82	1719.5
2554.29	1739.5
2552.75	1723
2551.22	1735
2549.69	1734
2548.15	1735
2546.62	1718
2545.08	1709
2543.55	1695
2542.01	1738
2540.47	1716.5
2538.94	1702.5
2537.4	1685
2535.86	1682
2534.33	1664
2532.79	1699
2531.25	1698
2529.71	1666
2528.17	1662
2526.63	1660
2525.09	1627.5
2523.55	1648
2522.01	1640
2520.47	1647
2518.92	1625.5
2517.38	1632
2515.84	1645.5
2514.3	1619
2512.75	1596.5
2511.21	1607
2509.67	1640
2508.12	1610.5
2506.58	1579
2505.03	1580.5
2503.49	1603.5
2501.94	1600
2500.39	1588.5
2498.85	1581
2497.3	1576
2495.75	1542.5
2494.2	1541
2492.65	1568
2491.11	1540.5
2489.56	1539
2488.01	1536.5
2486.46	1526.5
2484.91	1514
2483.36	1524.5
2481.8	1528.5
2480.25	1504.5
2478.7	1508
2477.15	1495
2475.6	1490.5
2474.04	1495
2472.49	1492.5
2470.93	1480
2469.38	1471.5
2467.83	1472
2466.27	1466.5
2464.71	1448
2463.16	1440
2461.6	1460.5
2460.05	1433.5
2458.49	1423
2456.93	1412
2455.37	1443.5
2453.81	1409.5
2452.26	1419.5
2450.7	1415
2449.14	1429
2447.58	1407.5
2446.02	1384.5
2444.46	1373.5
2442.9	1391.5
2441.33	1383
2439.77	1379
2438.21	1356
2436.65	1390
2435.08	1392.5
2433.52	1360
2431.96	1342
2430.39	1364.5
2428.83	1362.5
2427.26	1350
2425.7	1354
2424.13	1349
2422.56	1325.5
2421	1321.5
2419.43	1325
2417.86	1316
2416.3	1299
2414.73	1311
2413.16	1317
2411.59	1307
2410.02	1304.5
2408.45	1303
2406.88	1320.5
2405.31	1323.5
2403.74	1254
2402.17	1290
2400.6	1283.5
2399.02	1292.5
2397.45	1299.5
2395.88	1290
2394.3	1288.5
2392.73	1285
2391.16	1293.5
2389.58	1264.5
2388.01	1293.5
2386.43	1235
2384.86	1276
2383.28	1258
2381.7	1246
2380.13	1259.5
2378.55	1264.5
2376.97	1247.5
2375.39	1262.5
2373.81	1245
2372.23	1237.5
2370.65	1245
2369.07	1253.5
2367.49	1245.5
2365.91	1220.5
2364.33	1209
2362.75	1209.5
2361.17	1229
2359.59	1237
2358.01	1229.5
2356.42	1212
2354.84	1209.5
2353.25	1195
2351.67	1200
2350.09	1198
2348.5	1220
2346.92	1212
2345.33	1233
2343.74	1185
2342.16	1192.5
2340.57	1233.5
2338.98	1174
2337.39	1172.5
2335.81	1173.5
2334.22	1207
2332.63	1165.5
2331.04	1175.5
2329.45	1184
2327.86	1172
2326.27	1172
2324.68	1194.5
2323.09	1168
2321.49	1156.5
2319.9	1160
2318.31	1172.5
2316.72	1160
2315.12	1121.5
2313.53	1135
2311.93	1144
2310.34	1125.5
2308.74	1113.5
2307.15	1140
2305.55	1150.5
2303.96	1114.5
2302.36	1080.5
2300.76	1107.5
2299.17	1097.5
2297.57	1100.5
2295.97	1109
2294.37	1102.5
2292.77	1099.5
2291.17	1102.5
2289.57	1093
2287.97	1081.5
2286.37	1065
2284.77	1073.5
2283.17	1089
2281.57	1058
2279.96	1068
2278.36	1056.5
2276.76	1066.5
2275.15	1058
2273.55	1033
2271.95	1027
2270.34	1067
2268.74	1038
2267.13	1033.5
2265.52	1046.5
2263.92	1041
2262.31	1012.5
2260.7	1015.5
2259.1	1023.5
2257.49	1026.5
2255.88	1030
2254.27	1012.5
2252.66	1020.5
2251.05	1010
2249.44	1020.5
2247.83	1007
2246.22	989
2244.61	1003.5
2243	1008
2241.39	1005
2239.77	990.5
2238.16	995
2236.55	1002.5
2234.93	971.5
2233.32	983
2231.7	982.5
2230.09	981.5
2228.47	960.5
2226.86	968.5
2225.24	970
2223.63	952.5
2222.01	955
2220.39	935
2218.77	944
2217.16	932
2215.54	957.5
2213.92	910.5
2212.3	912
2210.68	921
2209.06	913
2207.44	927.5
2205.82	914
2204.19	938
2202.57	921.5
2200.95	914.5
2199.33	907
2197.7	923.5
2196.08	894.5
2194.46	917
2192.83	926
2191.21	902
2189.58	893.5
2187.96	894
2186.33	909.5
2184.7	888.5
2183.08	886.5
2181.45	888.5
2179.82	877.5
2178.19	885
2176.57	873
2174.94	882.5
2173.31	858.5
2171.68	865.5
2170.05	861
2168.42	827
2166.79	842
2165.16	848
2163.52	868.5
2161.89	836
2160.26	863.5
2158.63	835
2156.99	854.5
2155.36	830
2153.73	808.5
2152.09	805.5
2150.46	814
2148.82	825.5
2147.18	821
2145.55	818.5
2143.91	811.5
2142.27	797.5
2140.64	802.5
2139	818.5
2137.36	811
2135.72	809
2134.08	787.5
2132.44	774.5
2130.8	801
2129.16	782.5
2127.52	761.5
2125.88	785.5
2124.24	779.5
2122.6	761
2120.95	755.5
2119.31	758.5
2117.67	744
2116.02	726
2114.38	746.5
2112.74	740
2111.09	734.5
2109.45	749
2107.8	727
2106.15	714
2104.51	746
2102.86	726.5
2101.21	705
2099.56	725
2097.92	715.5
2096.27	736
2094.62	728.5
2092.97	740
2091.32	726
2089.67	702.5
2088.02	729
2086.37	707
2084.72	711.5
2083.06	701
2081.41	710
2079.76	701.5
2078.1	713.5
2076.45	695
2074.8	684.5
2073.14	705
2071.49	705.5
2069.83	682.5
2068.18	697
2066.52	703
2064.86	688.5
2063.21	669.5
2061.55	701.5
2059.89	678.5
2058.23	682
2056.57	690
2054.92	663
2053.26	681
2051.6	682
2049.94	679.5
2048.27	675
2046.61	666
2044.95	665.5
2043.29	666
2041.63	654.5
2039.97	671.5
2038.3	658.5
2036.64	639.5
2034.97	640
2033.31	636
2031.64	656.5
2029.98	632
2028.31	613
2026.65	629
2024.98	630.5
2023.31	633.5
2021.65	631.5
2019.98	628
2018.31	636
2016.64	620.5
2014.97	626
2013.3	610
2011.63	626
2009.96	602.5
2008.29	615.5
2006.62	605.5
2004.95	593
2003.28	600
2001.6	598.5
1999.93	608.5
1998.26	592.5
1996.58	600
1994.91	602
1993.24	598
1991.56	586
1989.89	593.5
1988.21	570
1986.53	593
1984.86	588.5
1983.18	565.5
1981.5	580
1979.82	573
1978.15	570.5
1976.47	571
1974.79	565
1973.11	571
1971.43	578
1969.75	560
1968.07	553
1966.38	551
1964.7	545
1963.02	537
1961.34	544.5
1959.66	544.5
1957.97	545.5
1956.29	526
1954.6	545
1952.92	539
1951.23	549.5
1949.55	546.5
1947.86	531.5
1946.18	538
1944.49	531
1942.8	518.5
1941.11	538.5
1939.43	532.5
1937.74	522
1936.05	522.5
1934.36	532
1932.67	524.5
1930.98	524.5
1929.29	515
1927.6	516.5
1925.91	504
1924.21	497.5
1922.52	497.5
1920.83	507
1919.14	512.5
1917.44	494.5
1915.75	522
1914.05	505
1912.36	505
1910.66	511
1908.97	496
1907.27	482.5
1905.58	499.5
1903.88	484.5
1902.18	484.5
1900.48	483.5
1898.79	491.5
1897.09	477.5
1895.39	479.5
1893.69	464.5
1891.99	473
1890.29	467.5
1888.59	470.5
1886.89	464.5
1885.18	443.5
1883.48	478
1881.78	472
1880.08	460.5
1878.37	444.5
1876.67	449
1874.96	464.5
1873.26	443.5
1871.55	459.5
1869.85	444
1868.14	448.5
1866.44	434.5
1864.73	433.5
1863.02	434
1861.32	436.5
1859.61	457
1857.9	424
1856.19	439.5
1854.48	432.5
1852.77	438
1851.06	431
1849.35	440.5
1847.64	434.5
1845.93	439
1844.21	436.5
1842.5	416
1840.79	425
1839.08	427.5
1837.36	425
1835.65	412
1833.93	422.5
1832.22	409.5
1830.5	418
1828.79	413
1827.07	424
1825.36	404
1823.64	414.5
1821.92	405.5
1820.2	415
1818.48	406
1816.77	401
1815.05	397.5
1813.33	408.5
1811.61	409.5
1809.89	394.5
1808.16	387
1806.44	404
1804.72	394.5
1803	376.5
1801.28	388
1799.55	390
1797.83	388.5
1796.11	380.5
1794.38	400.5
1792.66	394.5
1790.93	391.5
1789.21	375
1787.48	390
1785.75	370
1784.03	384.5
1782.3	381.5
1780.57	390
1778.84	385
1777.11	377.5
1775.38	382
1773.66	392
1771.93	389.5
1770.19	375
1768.46	396.5
1766.73	398
1765	402.5
1763.27	400.5
1761.54	425.5
1759.8	437.5
1758.07	442.5
1756.34	453
1754.6	456
1752.87	481.5
1751.13	483.5
1749.4	494
1747.66	505.5
1745.92	506.5
1744.19	508
1742.45	494
1740.71	475.5
1738.97	457
1737.23	433
1735.49	436
1733.75	428
1732.01	421.5
1730.27	415.5
1728.53	412.5
1726.79	395.5
1725.05	388
1723.31	388
1721.57	378
1719.82	367.5
1718.08	369
1716.34	380.5
1714.59	363
1712.85	349
1711.1	368
1709.36	367
1707.61	358
1705.86	355.5
1704.12	356
1702.37	363.5
1700.62	364
1698.87	360.5
1697.12	366
1695.37	346
1693.62	348.5
1691.87	351
1690.12	349
1688.37	365.5
1686.62	355
1684.87	364.5
1683.12	361.5
1681.36	357
1679.61	357.5
1677.86	372.5
1676.1	392
1674.35	400
1672.59	402.5
1670.84	432.5
1669.08	468
1667.33	508.5
1665.57	538
1663.81	593.5
1662.06	641.5
1660.3	698
1658.54	716
1656.78	733.5
1655.02	727.5
1653.26	709
1651.5	648
1649.74	582
1647.98	523
1646.22	516
1644.46	450
1642.7	422.5
1640.93	405.5
1639.17	386.5
1637.41	383
1635.64	378
1633.88	373.5
1632.11	364
1630.35	360
1628.58	365.5
1626.81	339.5
1625.05	334
1623.28	341.5
1621.51	331
1619.75	335.5
1617.98	335
1616.21	325
1614.44	338
1612.67	327
1610.9	328.5
1609.13	321.5
1607.36	323
1605.58	323
1603.81	320
1602.04	333.5
1600.27	323.5
1598.49	324
1596.72	324
1594.95	323.5
1593.17	324
1591.4	313
1589.62	326
1587.84	322.5
1586.07	319
1584.29	316
1582.51	312
1580.74	321.5
1578.96	311.5
1577.18	332
1575.4	300
1573.62	317
1571.84	315
1570.06	318
1568.28	312
1566.5	299.5
1564.72	312
1562.93	296
1561.15	320
1559.37	314.5
1557.58	314.5
1555.8	321.5
1554.02	323
1552.23	315
1550.45	312
1548.66	321
1546.87	320
1545.09	296.5
1543.3	318
1541.51	306.5
1539.72	312.5
1537.94	310.5
1536.15	311.5
1534.36	310.5
1532.57	319
1530.78	310
1528.99	307
1527.2	317
1525.4	319
1523.61	323.5
1521.82	306.5
1520.03	326
1518.23	323
1516.44	329.5
1514.65	336.5
1512.85	329
1511.06	335.5
1509.26	333
1507.46	342.5
1505.67	341
1503.87	357.5
1502.07	352
1500.28	350
1498.48	370.5
1496.68	369.5
1494.88	374
1493.08	382.5
1491.28	394
1489.48	404.5
1487.68	393
1485.88	437.5
1484.08	443
1482.27	470.5
1480.47	489
1478.67	508
1476.86	582.5
1475.06	591
1473.25	640.5
1471.45	710
1469.64	771
1467.84	842
1466.03	886.5
1464.23	959
1462.42	1020
1460.61	1052
1458.8	1143
1456.99	1156
1455.18	1194
1453.37	1250
1451.56	1263.5
1449.75	1308.5
1447.94	1356
1446.13	1421
1444.32	1469
1442.51	1508.5
1440.7	1530
1438.88	1492
1437.07	1381
1435.26	1289
1433.44	1124.5
1431.63	999
1429.81	853
1427.99	753
1426.18	685
1424.36	651.5
1422.54	594
1420.73	558
1418.91	558
1417.09	533.5
1415.27	507
1413.45	472
1411.63	455.5
1409.81	441.5
1407.99	421.5
1406.17	421
1404.35	418
1402.53	407.5
1400.7	391
1398.88	400
1397.06	369.5
1395.23	369
1393.41	373
1391.58	373
1389.76	371.5
1387.93	366.5
1386.11	354
1384.28	361.5
1382.45	369
1380.62	381.5
1378.8	395
1376.97	398.5
1375.14	404
1373.31	420
1371.48	414
1369.65	421
1367.82	432.5
1365.99	417.5
1364.16	414.5
1362.32	400
1360.49	405
1358.66	410
1356.82	398.5
1354.99	400.5
1353.16	396
1351.32	407
1349.48	417
1347.65	416
1345.81	405.5
1343.98	425
1342.14	426
1340.3	438
1338.46	435.5
1336.62	439
1334.79	460
1332.95	477.5
1331.11	499.5
1329.27	516
1327.42	540.5
1325.58	583
1323.74	616
1321.9	653.5
1320.06	664
1318.21	706.5
1316.37	758
1314.53	805.5
1312.68	873.5
1310.84	946
1308.99	1003
1307.15	1077.5
1305.3	1146.5
1303.45	1158.5
1301.61	1191.5
1299.76	1184
1297.91	1160
1296.06	1101
1294.21	989
1292.36	898.5
1290.51	838
1288.66	776
1286.81	732.5
1284.96	746
1283.11	713.5
1281.26	697
1279.4	715.5
1277.55	729
1275.7	722
1273.84	731
1271.99	727.5
1270.13	733
1268.28	734
1266.42	736
1264.56	715.5
1262.71	713.5
1260.85	702
1258.99	674
1257.13	662.5
1255.27	636.5
1253.41	611
1251.56	596.5
1249.7	557.5
1247.83	549
1245.97	524.5
1244.11	511
1242.25	489
1240.39	476.5
1238.52	465.5
1236.66	427
1234.8	436
1232.93	436.5
1231.07	445.5
1229.2	423.5
1227.34	411
1225.47	400
1223.6	401.5
1221.74	398.5
1219.87	396
1218	406
1216.13	378
1214.26	388.5
1212.39	391
1210.53	394
1208.65	395
1206.78	376
1204.91	388.5
1203.04	383.5
1201.17	384.5
1199.3	384.5
1197.42	381.5
1195.55	391.5
1193.68	391
1191.8	379
1189.93	392.5
1188.05	381.5
1186.17	402.5
1184.3	396
1182.42	395
1180.54	392.5
1178.67	400.5
1176.79	402
1174.91	396.5
1173.03	397.5
1171.15	395
1169.27	400.5
1167.39	405.5
1165.51	395.5
1163.63	393.5
1161.75	379.5
1159.86	389.5
1157.98	395.5
1156.1	381.5
1154.21	415
1152.33	399
1150.44	408
1148.56	404.5
1146.67	410
1144.79	420.5
1142.9	429.5
1141.01	426.5
1139.12	448.5
1137.24	467
1135.35	512
1133.46	553
1131.57	607
1129.68	650.5
1127.79	634
1125.9	643
1124.01	644
1122.12	606
1120.22	591.5
1118.33	606
1116.44	587
1114.54	584
1112.65	578.5
1110.75	580.5
1108.86	586
1106.96	605.5
1105.07	629
1103.17	660
1101.27	698.5
1099.38	699
1097.48	722
1095.58	774
1093.68	788
1091.78	824
1089.88	849
1087.98	880
1086.08	861.5
1084.18	907.5
1082.28	909
1080.38	912.5
1078.47	897
1076.57	877.5
1074.67	864
1072.76	830
1070.86	860.5
1068.95	881.5
1067.05	884
1065.14	956.5
1063.24	953
1061.33	920
1059.42	833
1057.51	762.5
1055.6	715
1053.7	685
1051.79	653.5
1049.88	637
1047.97	633.5
1046.06	630.5
1044.14	616
1042.23	624.5
1040.32	621
1038.41	609
1036.5	584
1034.58	617.5
1032.67	601
1030.75	607
1028.84	590
1026.92	612.5
1025.01	585
1023.09	595
1021.17	592.5
1019.26	592
1017.34	601
1015.42	585
1013.5	564.5
1011.58	542
1009.66	551
1007.74	537
1005.82	540.5
1003.9	538
1001.98	534.5
1000.06	524
998.134	534.5
996.212	533
994.288	537
992.364	557
990.44	535
988.515	563
986.589	551
984.663	604
982.737	598
980.81	627
978.883	649
976.955	655.5
975.027	678
973.098	688.5
971.169	696.5
969.239	687.5
967.308	689
965.378	675
963.447	668
961.516	658.5
959.583	669.5
957.65	672.5
955.718	675.5
953.784	683
951.85	675
949.916	688
947.981	674.5
946.045	694.5
944.109	719
942.173	712
940.236	710.5
938.298	701.5
936.36	696.5
934.422	697.5
932.484	685
930.544	700.5
928.604	680
926.664	694.5
924.724	670
922.782	695
920.84	693
918.898	708
916.955	691.5
915.012	700
913.068	691.5
911.124	679.5
909.18	702.5
907.235	702
905.289	691
903.343	719.5
901.397	710
899.45	737
897.502	737.5
895.554	756
893.605	800
891.657	814
889.707	834.5
887.758	807
885.807	846.5
883.856	810.5
881.905	813
879.953	838
878.001	813
876.048	859
874.094	854
872.14	870.5
870.186	840.5
868.232	837
866.276	839.5
864.321	813
862.365	836
860.408	793.5
858.451	781.5
856.493	799.5
854.535	802.5
852.576	798
850.617	815
848.658	813.5
846.698	785
844.737	793.5
842.776	796.5
840.814	794
838.852	754.5
836.89	759.5
834.927	729
832.963	697
830.999	690.5
829.035	664.5
827.07	646
825.105	628.5
823.139	613.5
821.172	618.5
819.206	609.5
817.238	571.5
815.27	580.5
813.301	557.5
811.333	558
809.363	566
807.394	527
805.424	531.5
803.453	504.5
801.482	498.5
799.509	493
797.538	478
795.565	470.5
793.592	465
791.618	453
789.643	452.5
787.669	433
785.693	448
783.718	452
781.742	450.5
779.765	427.5
777.788	462
775.811	470.5
773.832	459.5
771.853	444
769.875	457.5
767.895	447
765.915	441
763.934	454
761.953	455.5
759.972	452
757.99	442.5
756.007	460.5
754.024	427
752.041	442.5
750.056	455
748.072	443
746.087	461
744.102	461
742.116	459
740.13	480.5
738.143	461
736.155	459
734.167	456
732.179	459.5
730.19	462.5
728.2	502
726.21	469.5
724.22	472
722.229	474
720.237	479.5
718.246	456.5
716.253	460
714.26	447.5
712.267	432.5
710.273	433.5
708.279	440
706.284	435.5
704.289	426.5
702.293	419.5
700.296	421.5
698.3	419.5
696.303	409
694.305	414.5
692.307	407.5
690.307	408
688.308	425
686.309	420.5
684.308	400
682.308	421
680.306	421
678.304	422.5
676.302	412.5
674.3	409
672.296	424
670.293	424
668.289	432.5
666.284	447.5
664.278	434
662.273	427
660.266	414
658.26	425
656.252	428.5
654.244	440
652.237	426.5
650.227	454.5
648.218	427
646.209	444
644.198	457.5
642.188	448
640.177	458.5
638.165	445
636.153	464.5
634.14	460
632.128	470
630.113	479
628.099	470
626.085	488.5
624.07	482.5
622.054	473.5
620.038	500.5
618.021	486.5
616.004	506
613.986	504.5
611.968	525
609.949	517.5
607.93	532.5
605.911	525
603.891	521.5
601.87	539.5
599.848	516
597.827	511
595.805	523
593.782	503
591.759	492.5
589.735	503.5
587.711	500.5
585.687	490.5
583.661	488
581.636	494
579.609	493
577.583	496
575.555	483.5
573.527	479
571.5	485.5
569.471	483
567.441	492.5
565.412	495.5
563.382	492
561.351	482.5
559.32	496.5
557.289	499.5
555.257	524
553.223	511.5
551.19	534
549.157	532
547.122	556
545.088	568
543.053	576
541.017	602.5
538.981	640
536.943	664
534.907	758.5
532.869	870
530.831	1063
528.792	1402.5
526.752	2038
524.713	2955
522.673	3807
520.632	3925
518.591	3380
516.549	2547
514.507	1822.5
512.464	1319
510.42	1010.5
508.377	823
506.332	748
504.288	709
502.242	670.5
500.196	653
498.15	670
496.104	633
494.056	617
492.008	628.5
489.96	614.5
487.911	607.5
485.862	618.5
483.812	605.5
481.761	614
479.71	608.5
477.659	614
475.607	610
473.555	610.5
471.502	595
469.448	606
467.395	605
465.34	623.5
463.285	604
461.23	625
459.174	607.5
457.118	611.5
455.061	616.5
453.003	618
450.945	630
448.887	617
446.828	635.5
444.768	644
442.708	642
440.647	630
438.587	642.5
436.525	635.5
434.463	650.5
432.4	660
430.337	655.5
428.274	655
426.21	684
424.145	678.5
422.079	656.5
420.014	660.5
417.948	684.5
415.882	684
413.814	696.5
411.746	680.5
409.679	686.5
407.609	693
405.54	695
403.47	712.5
401.401	717
399.329	704.5
397.258	671.5
395.187	699
393.114	698.5
391.041	698
388.968	676.5
386.895	707.5
384.82	709.5
382.745	693.5
380.67	703
378.594	728
376.517	726.5
374.44	712.5
372.363	731.5
370.286	722
368.207	713
366.128	712.5
364.049	725
361.969	749.5
359.888	735
357.807	749.5
355.725	739.5
353.643	748
351.561	747.5
349.477	735
347.394	746.5
345.31	751
343.226	778
341.141	789.5
339.055	755
336.968	797
334.882	763.5
332.795	790.5
330.707	770.5
328.618	807.5
326.53	797
324.44	815
322.351	822
320.26	815.5
318.17	834
316.078	861
313.987	867
311.895	900
309.802	912.5
307.708	944.5
305.614	957.5
303.52	949.5
301.425	968
299.329	977
297.233	967
295.137	950.5
293.039	963
290.942	930
288.844	956
286.745	967.5
284.647	963
282.546	940.5
280.446	986
278.346	981.5
276.245	982
274.143	990.5
272.041	982.5
269.939	1005.5
267.835	1008
265.731	1020
263.627	1041
261.522	1049.5
259.417	1055
257.311	1083
255.204	1083.5
253.098	1067
250.99	1091
248.882	1116
246.774	1113
244.664	1149
242.555	1143
240.445	1150.5
238.334	1159
236.223	1170.5
234.112	1179.5
232	1206
229.888	1206.5
227.775	1223
225.661	1251.5
223.546	1246
221.431	1262
219.316	1251.5
217.201	1272
215.084	1269.5
212.967	1275
210.85	1305
208.732	1285
206.614	1279
204.495	1284
202.375	1273.5
200.256	1260
198.135	1291
196.014	1260.5
193.893	1266
191.771	1262.5
189.648	1258
187.525	1289
185.401	1254.5
183.277	1241.5
181.152	1278.5
179.027	1281.5
176.901	1286.5
174.775	1293
172.648	1292
170.521	1287.5
168.393	1312
166.265	1349
164.136	1337
162.007	1365
159.876	1395
157.746	1390
155.615	1443
153.483	1449
151.351	1480
149.219	1512.5
147.086	1547.5
144.952	1573
142.818	1630
140.684	1625
138.548	1705.5
136.413	1727.5
134.276	1799
132.139	1842.5
130.002	1888
127.864	1953.5
125.725	1997.5
123.587	2049
121.447	2106
119.307	2208
117.166	2286
115.026	2380
112.885	2454
110.743	2538
108.6	2575.5
106.456	2680
104.313	2677
102.169	2669.5
100.023	2621
97.8789	2495
95.7328	2271
93.5869	2004.5
91.4392	1732
89.2919	1423.5
87.1447	1138
84.9959	867
