3528.51	412
3527.23	441
3525.95	455.5
3524.67	452
3523.39	463
3522.1	483.5
3520.82	472.5
3519.54	475
3518.26	492
3516.97	481.5
3515.69	506
3514.4	477
3513.12	500
3511.84	490
3510.55	499
3509.26	476
3507.98	515
3506.69	502
3505.41	494.5
3504.12	529
3502.83	522
3501.54	530.5
3500.26	531
3498.97	541
3497.68	541.5
3496.39	547.5
3495.1	567.5
3493.81	573
3492.52	585.5
3491.23	599.5
3489.94	584.5
3488.65	600
3487.36	619.5
3486.07	629
3484.78	631
3483.49	646
3482.19	659
3480.9	664
3479.61	674
3478.31	675
3477.02	667
3475.73	688
3474.43	665
3473.14	678.5
3471.84	715
3470.54	703
3469.25	716
3467.95	703
3466.66	721
3465.36	722.5
3464.06	726.5
3462.76	747.5
3461.46	738.5
3460.17	735.5
3458.87	734
3457.57	741
3456.27	763.5
3454.97	786.5
3453.67	768
3452.37	774.5
3451.07	801
3449.77	786
3448.47	792
3447.16	798
3445.86	835.5
3444.56	841.5
3443.26	853
3441.95	841
3440.65	882
3439.35	883
3438.04	908.5
3436.74	935
3435.43	933
3434.13	963.5
3432.82	968
3431.52	973
3430.21	1024.5
3428.9	1018
3427.6	1029.5
3426.29	1059
3424.98	1084.5
3423.67	1063
3422.36	1089
3421.06	1101
3419.75	1120
3418.44	1132
3417.13	1151
3415.82	1180.5
3414.51	1190
3413.2	1148
3411.88	1180.5
3410.57	1201
3409.26	1216
3407.95	1240
3406.64	1257.5
3405.32	1253.5
3404.01	1258.5
3402.7	1258
3401.38	1275.5
3400.07	1273
3398.75	1297
3397.44	1306.5
3396.12	1310
3394.81	1341
3393.49	1343
3392.18	1350.5
3390.86	1349
3389.54	1331.5
3388.23	1387
3386.91	1400.5
3385.59	1415.5
3384.27	1423
3382.95	1429
3381.63	1434
3380.31	1454
3378.99	1455
3377.67	1520
3376.35	1499
3375.03	1529
3373.71	1510.5
3372.39	1561.5
3371.07	1537
3369.75	1578.5
3368.42	1584.5
3367.1	1594.5
3365.78	1593.5
3364.45	1622.5
3363.13	1637.5
3361.81	1662.5
3360.48	1647.5
3359.16	1677.5
3357.83	1686.5
3356.51	1640
3355.18	1709
3353.85	1696.5
3352.53	1714
3351.2	1681.5
3349.87	1718
3348.54	1700
3347.22	1744.5
3345.89	1736.5
3344.56	1736
3343.23	1726
3341.9	1727.5
3340.57	1772
3339.24	1763.5
3337.91	1763.5
3336.58	1794
3335.25	1774.5
3333.92	1779.5
3332.58	1797
3331.25	1769.5
3329.92	1811
3328.59	1810
3327.25	1840
3325.92	1809
3324.58	1820
3323.25	1853
3321.92	1874.5
3320.58	1879.5
3319.25	1870
3317.91	1913.5
3316.57	1903
3315.24	1875.5
3313.9	1937
3312.56	1912
3311.23	1918
3309.89	1937.5
3308.55	1968.5
3307.21	1984
3305.87	1989
3304.53	1990.5
3303.19	1989.5
3301.85	2003
3300.51	2005.5
3299.17	2025
3297.83	2034
3296.49	2039
3295.15	2059.5
3293.81	2079
3292.46	2045.5
3291.12	2062
3289.78	2066.5
3288.43	2018.5
3287.09	2069
3285.75	2083
3284.4	2122
3283.06	2128
3281.71	2115.5
3280.37	2106
3279.02	2096.5
3277.67	2111.5
3276.33	2188
3274.98	2166
3273.63	2213
3272.28	2190
3270.94	2220.5
3269.59	2240.5
3268.24	2250.5
3266.89	2250.5
3265.54	2295
3264.19	2325
3262.84	2381.5
3261.49	2371
3260.14	2443.5
3258.79	2451.5
3257.44	2483
3256.08	2514.5
3254.73	2586.5
3253.38	2627
3252.03	2671
3250.67	2753.5
3249.32	2810.5
3247.96	2842
3246.61	2985.5
3245.26	3052
3243.9	3095
3242.54	3124.5
3241.19	3288
3239.83	3379.5
3238.48	3424.5
3237.12	3533.5
3235.76	3625.5
3234.41	3721
3233.05	3813
3231.69	3859
3230.33	3998
3228.97	4026.5
3227.61	4138
3226.25	4189.5
3224.89	4292
3223.53	4370.5
3222.17	4403.5
3220.81	4459
3219.45	4547.5
3218.09	4619
3216.72	4645.5
3215.36	4674.5
3214	4757.5
3212.63	4776.5
3211.27	4762
3209.91	4875.5
3208.54	4875.5
3207.18	4915
3205.81	4953.5
3204.45	4940
3203.08	5021
3201.71	5030.5
3200.35	5028
3198.98	5074.5
3197.61	5071.5
3196.25	5120
3194.88	5141
3193.51	5163.5
3192.14	5165
3190.77	5199.5
3189.4	5235
3188.03	5322.5
3186.66	5252.5
3185.29	5308
3183.92	5350
3182.55	5331
3181.18	5394
3179.81	5419.5
3178.44	5462
3177.06	5444.5
3175.69	5530
3174.32	5576.5
3172.94	5601.5
3171.57	5671
3170.2	5728
3168.82	5674.5
3167.45	5724.5
3166.07	5741
3164.69	5879.5
3163.32	5847
3161.94	5907
3160.56	5958.5
3159.19	5973.5
3157.81	6059
3156.43	6125
3155.05	6142.5
3153.67	6259
3152.3	6231
3150.92	6291
3149.54	6339
3148.16	6443
3146.78	6364
3145.4	6442.5
3144.01	6477
3142.63	6492.5
3141.25	6547.5
3139.87	6527
3138.49	6680
3137.1	6652.5
3135.72	6779
3134.34	6766.5
3132.95	6833
3131.57	6896.5
3130.18	6925
3128.8	6931.5
3127.41	7005.5
3126.03	7117.5
3124.64	7074.5
3123.25	7168
3121.87	7149
3120.48	7252
3119.09	7316.5
3117.7	7271
3116.32	7346
3114.93	7372.5
3113.54	7428.5
3112.15	7403.5
3110.76	7456
3109.37	7541.5
3107.98	7608.5
3106.59	7559.5
3105.2	7629.5
3103.8	7671
3102.41	7630.5
3101.02	7686
3099.63	7725
3098.23	7789.5
3096.84	7830.5
3095.45	7860.5
3094.05	7852.5
3092.66	7883
3091.26	7866.5
3089.87	7886
3088.47	7984
3087.08	8040
3085.68	7998
3084.28	8035.5
3082.89	8035
3081.49	8086.5
3080.09	8102.5
3078.69	8076.5
3077.3	8118
3075.9	8207
3074.5	8181.5
3073.1	8248
3071.7	8197.5
3070.3	8268.5
3068.9	8210
3067.5	8240
3066.09	8218
3064.69	8254.5
3063.29	8321
3061.89	8345
3060.48	8392
3059.08	8348
3057.68	8312.5
3056.27	8390
3054.87	8428.5
3053.46	8449.5
3052.06	8498
3050.65	8523
3049.25	8552.5
3047.84	8560
3046.44	8671.5
3045.03	8638.5
3043.62	8700.5
3042.21	8608
3040.81	8708.5
3039.4	8700
3037.99	8771.5
3036.58	8819
3035.17	8833.5
3033.76	8851.5
3032.35	8898.5
3030.94	8899.5
3029.53	8898.5
3028.12	8892.5
3026.71	8959.5
3025.29	8898.5
3023.88	8891
3022.47	8932.5
3021.06	8912.5
3019.64	8959
3018.23	8965
3016.82	8906
3015.4	8964
3013.99	9012.5
3012.57	9004
3011.15	8963
3009.74	9051.5
3008.32	9050.5
3006.91	9032.5
3005.49	9050
3004.07	9148
3002.65	9206.5
3001.24	9185
2999.82	9247.5
2998.4	9232
2996.98	9284.5
2995.56	9310
2994.14	9355.5
2992.72	9394.5
2991.3	9467
2989.88	9483
2988.46	9569.5
2987.03	9636.5
2985.61	9606.5
2984.19	9703.5
2982.77	9741.5
2981.34	9850
2979.92	9850.5
2978.49	9921.5
2977.07	10001
2975.65	10047.5
2974.22	10055
2972.79	10018.5
2971.37	10152
2969.94	10078.5
2968.52	10190.5
2967.09	10165
2965.66	10165.5
2964.23	10195.5
2962.81	10187.5
2961.38	10253.5
2959.95	10300
2958.52	10249
2957.09	10295.5
2955.66	10323
2954.23	10296.5
2952.8	10351.5
2951.37	10387.5
2949.94	10345
2948.5	10378.5
2947.07	10389
2945.64	10372
2944.21	10438
2942.77	10447
2941.34	10461
2939.91	10491
2938.47	10529
2937.04	10586.5
2935.6	10571.5
2934.17	10567
2932.73	10624
2931.29	10707.5
2929.86	10630
2928.42	10774
2926.98	10656
2925.55	10753.5
2924.11	10868.5
2922.67	10738.5
2921.23	10845.5
2919.79	10826.5
2918.35	10876.5
2916.91	10756.5
2915.47	10832.5
2914.03	10850
2912.59	10875.5
2911.15	10945
2909.71	10916
2908.26	10890.5
2906.82	10944.5
2905.38	10973
2903.94	10947
2902.49	11038.5
2901.05	11064.5
2899.6	11097
2898.16	11029
2896.71	11182
2895.27	11085.5
2893.82	11000
2892.38	11125
2890.93	11062
2889.48	11078.5
2888.03	11139
2886.59	11157
2885.14	11166.5
2883.69	11180.5
2882.24	11217.5
2880.79	11227
2879.34	11241
2877.89	11289.5
2876.44	11343.5
2874.99	11331
2873.54	11190
2872.09	11314
2870.64	11314
2869.18	11304
2867.73	11328.5
2866.28	11302.5
2864.83	11342.5
2863.37	11313.5
2861.92	11355.5
2860.46	11355.5
2859.01	11385.5
2857.55	11406.5
2856.1	11360
2854.64	11364.5
2853.19	11356
2851.73	11367.5
2850.27	11495.5
2848.81	11414.5
2847.36	11431
2845.9	11445
2844.44	11491.5
2842.98	11371
2841.52	11443
2840.06	11424
2838.6	11396.5
2837.14	11412.5
2835.68	11382
2834.22	11403.5
2832.76	11368.5
2831.3	11426
2829.83	11430
2828.37	11385
2826.91	11404.5
2825.44	11382.5
2823.98	11344
2822.52	11350.5
2821.05	11382.5
2819.59	11340
2818.12	11428.5
2816.66	11346.5
2815.19	11316.5
2813.72	11344
2812.26	11377.5
2810.79	11221.5
2809.32	11302
2807.85	11357
2806.38	11285
2804.92	11307.5
2803.45	11294.5
2801.98	11283.5
2800.51	11288.5
2799.04	11234.5
2797.57	11285.5
2796.1	11203
2794.62	11155
2793.15	11148
2791.68	11220.5
2790.21	11256
2788.73	11177.5
2787.26	11202.5
2785.79	11163.5
2784.31	11201.5
2782.84	11245
2781.36	11122
2779.89	11249
2778.41	11197.5
2776.94	11295.5
2775.46	11229
2773.99	11283.5
2772.51	11322
2771.03	11352.5
2769.55	11438
2768.07	11382
2766.6	11491.5
2765.12	11381
2763.64	11395
2762.16	11450
2760.68	11380.5
2759.2	11443.5
2757.72	11362.5
2756.24	11399
2754.75	11337.5
2753.27	11360.5
2751.79	11408
2750.31	11383.5
2748.82	11439
2747.34	11445.5
2745.86	11367.5
2744.37	11372
2742.89	11341.5
2741.4	11342
2739.92	11277.5
2738.43	11300
2736.94	11338.5
2735.46	11450
2733.97	11395
2732.48	11341.5
2731	11366
2729.51	11311.5
2728.02	11286
2726.53	11395.5
2725.04	11275.5
2723.55	11197
2722.06	11193
2720.57	11098.5
2719.08	11270
2717.59	11239
2716.1	11212.5
2714.61	11210.5
2713.11	11229
2711.62	11253.5
2710.13	11179.5
2708.64	11136.5
2707.14	11251.5
2705.65	11173
2704.15	11261.5
2702.66	11113
2701.16	11150
2699.67	11169.5
2698.17	11196.5
2696.67	11179
2695.18	11192
2693.68	11112.5
2692.18	11029.5
2690.69	11090
2689.19	11075
2687.69	11065.5
2686.19	11024
2684.69	10998.5
2683.19	10969.5
2681.69	10948.5
2680.19	10922.5
2678.69	10957.5
2677.19	10910.5
2675.68	10912.5
2674.18	10836.5
2672.68	10891.5
2671.18	10889
2669.67	10832.5
2668.17	10820.5
2666.66	10792
2665.16	10807.5
2663.66	10782
2662.15	10741
2660.64	10779.5
2659.14	10676
2657.63	10759
2656.13	10693
2654.62	10701.5
2653.11	10768.5
2651.6	10697
2650.09	10649.5
2648.58	10658
2647.08	10575
2645.57	10552.5
2644.06	10540.5
2642.55	10551
2641.04	10540.5
2639.52	10469.5
2638.01	10485.5
2636.5	10453
2634.99	10466
2633.48	10349
2631.96	10408
2630.45	10356.5
2628.94	10314
2627.42	10322.5
2625.91	10251
2624.39	10187.5
2622.88	10219.5
2621.36	10252
2619.85	10232.5
2618.33	10235.5
2616.81	10213
2615.3	10214.5
2613.78	10181
2612.26	10158
2610.74	10115.5
2609.22	10116
2607.7	10184.5
2606.18	10039.5
2604.66	10029
2603.14	9988
2601.62	9914
2600.1	9880
2598.58	9844.5
2597.06	9817
2595.54	9756.5
2594.01	9798
2592.49	9776.5
2590.97	9697
2589.44	9827.5
2587.92	9740.5
2586.39	9700.5
2584.87	9757
2583.34	9714
2581.82	9703.5
2580.29	9737.5
2578.76	9689.5
2577.24	9664
2575.71	9626
2574.18	9702
2572.65	9676.5
2571.13	9645.5
2569.6	9673.5
2568.07	9672.5
2566.54	9650.5
2565.01	9632
2563.48	9591
2561.95	9557
2560.42	9559
2558.88	9552
2557.35	9532
2555.82	9466.5
2554.29	9487
2552.75	9454.5
2551.22	9418.5
2549.69	9389
2548.15	9364
2546.62	9412.5
2545.08	9332.5
2543.55	9318
2542.01	9295
2540.47	9265.5
2538.94	9271
2537.4	9213.5
2535.86	9203.5
2534.33	9169
2532.79	9131.5
2531.25	9128
2529.71	9051
2528.17	9069
2526.63	9013.5
2525.09	8955.5
2523.55	8963
2522.01	8938.5
2520.47	8943.5
2518.92	8929.5
2517.38	8983
2515.84	8921.5
2514.3	8874
2512.75	8836
2511.21	8809.5
2509.67	8697.5
2508.12	8708.5
2506.58	8726.5
2505.03	8716.5
2503.49	8644.5
2501.94	8659
2500.39	8626
2498.85	8616
2497.3	8671
2495.75	8538
2494.2	8463
2492.65	8514
2491.11	8485
2489.56	8427
2488.01	8402.5
2486.46	8375.5
2484.91	8395
2483.36	8352.5
2481.8	8335
2480.25	8348.5
2478.7	8292.5
2477.15	8318.5
2475.6	8298
2474.04	8229
2472.49	8211.5
2470.93	8217.5
2469.38	8113.5
2467.83	8081.5
2466.27	7996
2464.71	7961
2463.16	7942
2461.6	8009.5
2460.05	7941.5
2458.49	7864
2456.93	7823
2455.37	7777.5
2453.81	7751.5
2452.26	7745.5
2450.7	7722.5
2449.14	7652.5
2447.58	7607.5
2446.02	7568.5
2444.46	7558
2442.9	7479.5
2441.33	7525.5
2439.77	7576
2438.21	7423
2436.65	7473.5
2435.08	7514
2433.52	7452.5
2431.96	7395
2430.39	7412
2428.83	7414.5
2427.26	7376.5
2425.7	7378
2424.13	7390
2422.56	7273.5
2421	7258
2419.43	7299.5
2417.86	7246
2416.3	7214.5
2414.73	7207
2413.16	7120.5
2411.59	7236
2410.02	7173.5
2408.45	7171.5
2406.88	7209
2405.31	7157.5
2403.74	7170
2402.17	7157
2400.6	7160.5
2399.02	7118.5
2397.45	7039
2395.88	7016.5
2394.3	7001.5
2392.73	6957.5
2391.16	6945
2389.58	6938.5
2388.01	6852.5
2386.43	6944.5
2384.86	6929
2383.28	6976
2381.7	6914.5
2380.13	7006.5
2378.55	6966.5
2376.97	6909
2375.39	6904.5
2373.81	6913.5
2372.23	6881.5
2370.65	6867.5
2369.07	6877
2367.49	6874
2365.91	6805.5
2364.33	6861.5
2362.75	6821
2361.17	6812.5
2359.59	6732
2358.01	6789
2356.42	6687
2354.84	6747
2353.25	6726.5
2351.67	6682.5
2350.09	6759.5
2348.5	6653
2346.92	6726
2345.33	6692
2343.74	6661
2342.16	6661.5
2340.57	6660
2338.98	6632.5
2337.39	6550.5
2335.81	6569.5
2334.22	6509.5
2332.63	6528
2331.04	6535
2329.45	6540.5
2327.86	6505
2326.27	6523.5
2324.68	6528.5
2323.09	6428.5
2321.49	6415.5
2319.9	6406.5
2318.31	6404.5
2316.72	6330
2315.12	6289
2313.53	6303.5
2311.93	6240.5
2310.34	6240.5
2308.74	6223
2307.15	6193.5
2305.55	6232.5
2303.96	6212
2302.36	6148
2300.76	6204.5
2299.17	6086
2297.57	6085
2295.97	6090.5
2294.37	6095.5
2292.77	6074
2291.17	6054
2289.57	6008.5
2287.97	5937.5
2286.37	5930.5
2284.77	5957
2283.17	5928
2281.57	5940
2279.96	5961.5
2278.36	5956
2276.76	5905
2275.15	5860
2273.55	5872
2271.95	5810.5
2270.34	5838
2268.74	5767.5
2267.13	5746
2265.52	5682.5
2263.92	5757.5
2262.31	5655
2260.7	5680
2259.1	5640
2257.49	5638.5
2255.88	5648.5
2254.27	5611
2252.66	5599
2251.05	5642
2249.44	5591.5
2247.83	5576
2246.22	5595.5
2244.61	5605
2243	5639
2241.39	5580.5
2239.77	5552
2238.16	5487.5
2236.55	5457
2234.93	5444.5
2233.32	5463.5
2231.7	5390
2230.09	5377.5
2228.47	5377
2226.86	5388.5
2225.24	5289
2223.63	5309
2222.01	5329.5
2220.39	5318
2218.77	5276.5
2217.16	5223.5
2215.54	5185.5
2213.92	5216
2212.3	5167
2210.68	5088.5
2209.06	5149
2207.44	5107
2205.82	5108
2204.19	5063
2202.57	5094
2200.95	5023.5
2199.33	5032.5
2197.7	4987.5
2196.08	5011.5
2194.46	5003.5
2192.83	4991
2191.21	4986
2189.58	4967
2187.96	4926
2186.33	4930
2184.7	4912.5
2183.08	4909
2181.45	4838
2179.82	4839.5
2178.19	4824.5
2176.57	4751
2174.94	4764
2173.31	4735
2171.68	4761
2170.05	4720
2168.42	4751.5
2166.79	4652.5
2165.16	4681
2163.52	4653.5
2161.89	4650
2160.26	4617
2158.63	4600
2156.99	4586
2155.36	4552
2153.73	4528
2152.09	4562
2150.46	4584.5
2148.82	4526
2147.18	4460.5
2145.55	4515.5
2143.91	4522
2142.27	4437
2140.64	4431
2139	4407.5
2137.36	4369
2135.72	4387.5
2134.08	4336
2132.44	4293.5
2130.8	4311.5
2129.16	4271.5
2127.52	4259
2125.88	4174.5
2124.24	4207
2122.6	4194
2120.95	4188.5
2119.31	4162.5
2117.67	4106
2116.02	4092
2114.38	4112
2112.74	4096.5
2111.09	4085.5
2109.45	4071.5
2107.8	4038
2106.15	4031
2104.51	4036.5
2102.86	3956.5
2101.21	3963
2099.56	3981.5
2097.92	3980
2096.27	3946
2094.62	3947
2092.97	3897
2091.32	3943
2089.67	3863.5
2088.02	3899
2086.37	3922.5
2084.72	3902.5
2083.06	3886
2081.41	3850
2079.76	3850.5
2078.1	3868.5
2076.45	3809.5
2074.8	3873.5
2073.14	3825
2071.49	3836
2069.83	3794.5
2068.18	3844.5
2066.52	3830
2064.86	3781.5
2063.21	3793.5
2061.55	3748.5
2059.89	3808
2058.23	3771
2056.57	3754.5
2054.92	3749.5
2053.26	3741.5
2051.6	3711.5
2049.94	3672.5
2048.27	3691.5
2046.61	3691.5
2044.95	3635
2043.29	3642.5
2041.63	3619.5
2039.97	3608.5
2038.3	3529.5
2036.64	3555
2034.97	3551.5
2033.31	3526.5
2031.64	3514
2029.98	3494
2028.31	3426.5
2026.65	3409
2024.98	3428.5
2023.31	3377.5
2021.65	3382.5
2019.98	3365.5
2018.31	3348.5
2016.64	3355
2014.97	3299.5
2013.3	3324.5
2011.63	3277.5
2009.96	3296
2008.29	3296
2006.62	3241.5
2004.95	3282.5
2003.28	3250.5
2001.6	3216
1999.93	3217
1998.26	3237.5
1996.58	3202.5
1994.91	3196
1993.24	3161.5
1991.56	3175.5
1989.89	3175
1988.21	3177.5
1986.53	3167.5
1984.86	3139
1983.18	3131.5
1981.5	3094
1979.82	3083.5
1978.15	3056
1976.47	3103.5
1974.79	3024
1973.11	3051
1971.43	3053.5
1969.75	3035.5
1968.07	3003
1966.38	2997
1964.7	2917
1963.02	2983.5
1961.34	2916.5
1959.66	2949.5
1957.97	2918.5
1956.29	2906
1954.6	2919.5
1952.92	2862
1951.23	2898
1949.55	2866.5
1947.86	2833
1946.18	2825.5
1944.49	2819.5
1942.8	2813
1941.11	2795
1939.43	2769
1937.74	2807
1936.05	2793.5
1934.36	2731
1932.67	2775
1930.98	2727
1929.29	2751
1927.6	2730
1925.91	2693
1924.21	2668.5
1922.52	2637
1920.83	2648.5
1919.14	2606
1917.44	2617.5
1915.75	2654
1914.05	2635
1912.36	2587.5
1910.66	2576
1908.97	2592.5
1907.27	2574
1905.58	2575.5
1903.88	2544.5
1902.18	2520.5
1900.48	2535
1898.79	2490
1897.09	2469.5
1895.39	2436.5
1893.69	2458.5
1891.99	2443
1890.29	2434
1888.59	2417
1886.89	2426
1885.18	2443
1883.48	2414
1881.78	2375.5
1880.08	2349
1878.37	2338.5
1876.67	2316.5
1874.96	2330
1873.26	2312.5
1871.55	2283
1869.85	2297
1868.14	2282.5
1866.44	2243
1864.73	2256
1863.02	2259
1861.32	2237
1859.61	2263
1857.9	2224
1856.19	2167
1854.48	2175
1852.77	2186.5
1851.06	2179.5
1849.35	2178.5
1847.64	2170.5
1845.93	2161
1844.21	2122.5
1842.5	2149
1840.79	2135
1839.08	2133.5
1837.36	2139.5
1835.65	2132.5
1833.93	2110
1832.22	2099.5
1830.5	2070
1828.79	2076.5
1827.07	2076.5
1825.36	2041
1823.64	2031
1821.92	2021.5
1820.2	1981.5
1818.48	1981.5
1816.77	2002
1815.05	1968
1813.33	1952.5
1811.61	1963.5
1809.89	1929.5
1808.16	1947
1806.44	1940
1804.72	1932
1803	1908
1801.28	1882
1799.55	1928.5
1797.83	1871
1796.11	1887.5
1794.38	1857.5
1792.66	1868
1790.93	1818
1789.21	1829.5
1787.48	1818.5
1785.75	1823.5
1784.03	1822
1782.3	1827
1780.57	1794.5
1778.84	1780
1777.11	1798
1775.38	1818
1773.66	1753
1771.93	1767.5
1770.19	1759
1768.46	1768
1766.73	1771
1765	1745.5
1763.27	1712.5
1761.54	1752
1759.8	1727
1758.07	1733
1756.34	1712.5
1754.6	1711.5
1752.87	1691.5
1751.13	1693.5
1749.4	1702
1747.66	1706
1745.92	1708.5
1744.19	1696.5
1742.45	1684
1740.71	1717.5
1738.97	1676.5
1737.23	1642
1735.49	1627.5
1733.75	1649
1732.01	1644.5
1730.27	1633
1728.53	1605.5
1726.79	1630.5
1725.05	1614.5
1723.31	1608
1721.57	1594.5
1719.82	1574.5
1718.08	1574
1716.34	1565
1714.59	1570.5
1712.85	1577
1711.1	1553.5
1709.36	1531
1707.61	1522.5
1705.86	1548.5
1704.12	1498
1702.37	1512.5
1700.62	1501
1698.87	1483
1697.12	1471.5
1695.37	1438
1693.62	1467
1691.87	1442
1690.12	1439.5
1688.37	1419
1686.62	1409
1684.87	1405.5
1683.12	1411
1681.36	1417.5
1679.61	1404
1677.86	1372.5
1676.1	1375
1674.35	1374.5
1672.59	1359.5
1670.84	1382
1669.08	1360.5
1667.33	1383
1665.57	1347
1663.81	1347.5
1662.06	1357
1660.3	1382.5
1658.54	1344
1656.78	1352
1655.02	1342
1653.26	1342
1651.5	1347
1649.74	1339.5
1647.98	1304
1646.22	1304.5
1644.46	1321
1642.7	1317
1640.93	1290.5
1639.17	1276
1637.41	1277
1635.64	1269.5
1633.88	1285
1632.11	1252.5
1630.35	1264
1628.58	1222.5
1626.81	1254.5
1625.05	1223.5
1623.28	1191
1621.51	1218.5
1619.75	1187
1617.98	1199.5
1616.21	1186
1614.44	1203.5
1612.67	1206.5
1610.9	1187
1609.13	1186
1607.36	1175.5
1605.58	1181
1603.81	1180
1602.04	1185.5
1600.27	1169.5
1598.49	1169
1596.72	1158
1594.95	1154.5
1593.17	1152.5
1591.4	1157
1589.62	1133.5
1587.84	1149.5
1586.07	1128
1584.29	1135.5
1582.51	1163.5
1580.74	1123
1578.96	1132
1577.18	1114.5
1575.4	1098
1573.62	1107.5
1571.84	1096
1570.06	1088
1568.28	1084
1566.5	1067.5
1564.72	1074.5
1562.93	1047
1561.15	1055
1559.37	1047.5
1557.58	1041
1555.8	1016
1554.02	1039
1552.23	1039.5
1550.45	1051.5
1548.66	1023.5
1546.87	1026
1545.09	1004.5
1543.3	997
1541.51	991
1539.72	1001.5
1537.94	987
1536.15	966.5
1534.36	968
1532.57	976.5
1530.78	958
1528.99	955.5
1527.2	939.5
1525.4	927
1523.61	920.5
1521.82	944
1520.03	928.5
1518.23	909.5
1516.44	930.5
1514.65	921.5
1512.85	899.5
1511.06	906.5
1509.26	927
1507.46	899
1505.67	905
1503.87	902
1502.07	913.5
1500.28	890
1498.48	905.5
1496.68	884.5
1494.88	889.5
1493.08	901
1491.28	885
1489.48	888.5
1487.68	868
1485.88	869.5
1484.08	872
1482.27	860
1480.47	865.5
1478.67	882.5
1476.86	860
1475.06	856.5
1473.25	875.5
1471.45	854
1469.64	876
1467.84	853.5
1466.03	871.5
1464.23	863.5
1462.42	850.5
1460.61	856.5
1458.8	851
1456.99	862.5
1455.18	870
1453.37	845.5
1451.56	830
1449.75	880
1447.94	876
1446.13	864
1444.32	848
1442.51	870.5
1440.7	849.5
1438.88	852
1437.07	833
1435.26	821.5
1433.44	819
1431.63	803.5
1429.81	787
1427.99	785.5
1426.18	776
1424.36	773.5
1422.54	779
1420.73	745.5
1418.91	757
1417.09	724.5
1415.27	738
1413.45	729.5
1411.63	722
1409.81	732
1407.99	723
1406.17	699
1404.35	719
1402.53	718
1400.7	694
1398.88	687
1397.06	697.5
1395.23	676.5
1393.41	673
1391.58	679.5
1389.76	676
1387.93	683
1386.11	667
1384.28	655
1382.45	650
1380.62	655.5
1378.8	657.5
1376.97	654.5
1375.14	652
1373.31	662.5
1371.48	638.5
1369.65	657.5
1367.82	646
1365.99	644
1364.16	643
1362.32	643
1360.49	632
1358.66	634.5
1356.82	629
1354.99	601.5
1353.16	628
1351.32	634
1349.48	626
1347.65	619
1345.81	600.5
1343.98	605.5
1342.14	595.5
1340.3	588
1338.46	589
1336.62	592
1334.79	582
1332.95	589.5
1331.11	597
1329.27	597.5
1327.42	592
1325.58	601
1323.74	578
1321.9	593
1320.06	598
1318.21	586.5
1316.37	586.5
1314.53	590.5
1312.68	586.5
1310.84	582.5
1308.99	576
1307.15	583
1305.3	587
1303.45	606
1301.61	580.5
1299.76	588.5
1297.91	578
1296.06	573
1294.21	554
1292.36	552.5
1290.51	557.5
1288.66	552
1286.81	540
1284.96	555
1283.11	551
1281.26	531.5
1279.4	531.5
1277.55	520.5
1275.7	527.5
1273.84	539.5
1271.99	533
1270.13	510.5
1268.28	528.5
1266.42	515.5
1264.56	518.5
1262.71	520
1260.85	501
1258.99	500.5
1257.13	507.5
1255.27	490
1253.41	502.5
1251.56	496.5
1249.7	488.5
1247.83	485.5
1245.97	470
1244.11	469.5
1242.25	472.5
1240.39	472.5
1238.52	468
1236.66	472
1234.8	457.5
1232.93	457.5
1231.07	462.5
1229.2	467.5
1227.34	455.5
1225.47	449
1223.6	458
1221.74	450.5
1219.87	439.5
1218	443
1216.13	427
1214.26	432.5
1212.39	444.5
1210.53	423
1208.65	437.5
1206.78	430
1204.91	417
1203.04	413.5
1201.17	440
1199.3	421
1197.42	407
1195.55	413
1193.68	417
1191.8	393
1189.93	407.5
1188.05	408.5
1186.17	401.5
1184.3	405.5
1182.42	397
1180.54	402
1178.67	381
1176.79	394
1174.91	397
1173.03	391
1171.15	401.5
1169.27	382.5
1167.39	393
1165.51	390
1163.63	384
1161.75	380
1159.86	380
1157.98	385
1156.1	380
1154.21	380
1152.33	376.5
1150.44	375
1148.56	371.5
1146.67	369
1144.79	381
1142.9	368
1141.01	382
1139.12	374.5
1137.24	379.5
1135.35	384
1133.46	365.5
1131.57	383.5
1129.68	377.5
1127.79	361
1125.9	368
1124.01	353.5
1122.12	365
1120.22	355
1118.33	365
1116.44	356
1114.54	365.5
1112.65	361
1110.75	354.5
1108.86	358
1106.96	357
1105.07	349.5
1103.17	344
1101.27	348.5
1099.38	345
1097.48	354
1095.58	348.5
1093.68	357
1091.78	351
1089.88	345
1087.98	351.5
1086.08	350
1084.18	345
1082.28	338
1080.38	337
1078.47	352
1076.57	346
1074.67	335.5
1072.76	348.5
1070.86	330.5
1068.95	324
1067.05	326
1065.14	326
1063.24	351.5
1061.33	324
1059.42	331.5
1057.51	324
1055.6	317
1053.7	311
1051.79	322.5
1049.88	304
1047.97	312.5
1046.06	310
1044.14	296
1042.23	313
1040.32	310.5
1038.41	310
1036.5	315.5
1034.58	305
1032.67	312
1030.75	314
1028.84	316.5
1026.92	310
1025.01	300
1023.09	303.5
1021.17	305
1019.26	303.5
1017.34	311.5
1015.42	317.5
1013.5	305.5
1011.58	305
1009.66	320.5
1007.74	323
1005.82	305.5
1003.9	312
1001.98	320
1000.06	336
998.134	331.5
996.212	342
994.288	351
992.364	354
990.44	365.5
988.515	376
986.589	398
984.663	423.5
982.737	395
980.81	420.5
978.883	412
976.955	407
975.027	416
973.098	416
971.169	404.5
969.239	408.5
967.308	406
965.378	421.5
963.447	434
961.516	423.5
959.583	425.5
957.65	412
955.718	436.5
953.784	429
951.85	450
949.916	441
947.981	463
946.045	463
944.109	464
942.173	468.5
940.236	467.5
938.298	458
936.36	445
934.422	410
932.484	390
930.544	370
928.604	327.5
926.664	319
924.724	293.5
922.782	289.5
920.84	282
918.898	291
916.955	292.5
915.012	275
913.068	278
911.124	276
909.18	286.5
907.235	277.5
905.289	270
903.343	275.5
901.397	275.5
899.45	265
897.502	266.5
895.554	275.5
893.605	277
891.657	272.5
889.707	273
887.758	264
885.807	259.5
883.856	282
881.905	272
879.953	263
878.001	260.5
876.048	284
874.094	259
872.14	276.5
870.186	273
868.232	266
866.276	261
864.321	265
862.365	288
860.408	261
858.451	242.5
856.493	259
854.535	250
852.576	258.5
850.617	244
848.658	256
846.698	254
844.737	255
842.776	245
840.814	248.5
838.852	251
836.89	254.5
834.927	255.5
832.963	249
830.999	253
829.035	248
827.07	248.5
825.105	238
823.139	234.5
821.172	221.5
819.206	238.5
817.238	228.5
815.27	234.5
813.301	225
811.333	235
809.363	222
807.394	225
805.424	219
803.453	218.5
801.482	226.5
799.509	217
797.538	204
795.565	221
793.592	221
791.618	219.5
789.643	220
787.669	218.5
785.693	202
783.718	214
781.742	210
779.765	214
777.788	216
775.811	215
773.832	205.5
771.853	206.5
769.875	201
767.895	203
765.915	195.5
763.934	208
761.953	203
759.972	205
757.99	201
756.007	207
754.024	196
752.041	186
750.056	199.5
748.072	198
746.087	210.5
744.102	190.5
742.116	197.5
740.13	195.5
738.143	205.5
736.155	191
734.167	192.5
732.179	191
730.19	193
728.2	200
726.21	195
724.22	195
722.229	198
720.237	201
718.246	195
716.253	189.5
714.26	184.5
712.267	205
710.273	204.5
708.279	203.5
706.284	197.5
704.289	199.5
702.293	196
700.296	187.5
698.3	196.5
696.303	198.5
694.305	203
692.307	181.5
690.307	197.5
688.308	192.5
686.309	212.5
684.308	209.5
682.308	220
680.306	208
678.304	193
676.302	202
674.3	214.5
672.296	219.5
670.293	203.5
668.289	209
666.284	216
664.278	191
662.273	207.5
660.266	202.5
658.26	215.5
656.252	212
654.244	223
652.237	200
650.227	207.5
648.218	208
646.209	221.5
644.198	208
642.188	215
640.177	215
638.165	210
636.153	219
634.14	207
632.128	212
630.113	208.5
628.099	219.5
626.085	214.5
624.07	214
622.054	224
620.038	227
618.021	223
616.004	213.5
613.986	222.5
611.968	202.5
609.949	200
607.93	214
605.911	209.5
603.891	197
601.87	201
599.848	206
597.827	211
595.805	203.5
593.782	201.5
591.759	200
589.735	203
587.711	198.5
585.687	209
583.661	198
581.636	212
579.609	205.5
577.583	195
575.555	199
573.527	213.5
571.5	215
569.471	226.5
567.441	225
565.412	239
563.382	231.5
561.351	224.5
559.32	247
557.289	231.5
555.257	241.5
553.223	253
551.19	257.5
549.157	280
547.122	282.5
545.088	313
543.053	320.5
541.017	364
538.981	405.5
536.943	493
534.907	639.5
532.869	834.5
530.831	1236
528.792	1853.5
526.752	2900
524.713	4373.5
522.673	5452.5
520.632	5273.5
518.591	4258.5
516.549	2990.5
514.507	1943
512.464	1260
510.42	833
508.377	598.5
506.332	483.5
504.288	394
502.242	366
500.196	344.5
498.15	309.5
496.104	284
494.056	276
492.008	286
489.96	279.5
487.911	258.5
485.862	240
483.812	245.5
481.761	243.5
479.71	249
477.659	238.5
475.607	246.5
473.555	246
471.502	239
469.448	224
467.395	229
465.34	224.5
463.285	228
461.23	217.5
459.174	219
457.118	231.5
455.061	226
453.003	237
450.945	237.5
448.887	252
446.828	231
444.768	257
442.708	253.5
440.647	249
438.587	253.5
436.525	265
434.463	271.5
432.4	255
430.337	265.5
428.274	263
426.21	261.5
424.145	254
422.079	260.5
420.014	261
417.948	267.5
415.882	269
413.814	257.5
411.746	264.5
409.679	263.5
407.609	254.5
405.54	261
403.47	261
401.401	266
399.329	263
397.258	263.5
395.187	267.5
393.114	257
391.041	280.5
388.968	264.5
386.895	277.5
384.82	286
382.745	281
380.67	275.5
378.594	280
376.517	269
374.44	283
372.363	275.5
370.286	286.5
368.207	295.5
366.128	289.5
364.049	283.5
361.969	283
359.888	286
357.807	291
355.725	290.5
353.643	304
351.561	301
349.477	317
347.394	296
345.31	314
343.226	314
341.141	321
339.055	321.5
336.968	315.5
334.882	330
332.795	328.5
330.707	347.5
328.618	345
326.53	360
324.44	358
322.351	367
320.26	384
318.17	395
316.078	423
313.987	434.5
311.895	462
309.802	483
307.708	493.5
305.614	518
303.52	512
301.425	504.5
299.329	496.5
297.233	468.5
295.137	439
293.039	424
290.942	408
288.844	415.5
286.745	401
284.647	392.5
282.546	379
280.446	377
278.346	380
276.245	365.5
274.143	372.5
272.041	365
269.939	371
267.835	377
265.731	364.5
263.627	356.5
261.522	375
259.417	367.5
257.311	372.5
255.204	381.5
253.098	375.5
250.99	370.5
248.882	380.5
246.774	393
244.664	377.5
242.555	376
240.445	383
238.334	380.5
236.223	394.5
234.112	394
232	398.5
229.888	396.5
227.775	405
225.661	395
223.546	398.5
221.431	385.5
219.316	399
217.201	411
215.084	382
212.967	406
210.85	400
208.732	420
206.614	411.5
204.495	412
202.375	419.5
200.256	420
198.135	416
196.014	430
193.893	419
191.771	439
189.648	450
187.525	449
185.401	450.5
183.277	454.5
181.152	462
179.027	470
176.901	464.5
174.775	473
172.648	492
170.521	495
168.393	506
166.265	493
164.136	516.5
162.007	520
159.876	528
157.746	543
155.615	558.5
153.483	561.5
151.351	573.5
149.219	583.5
147.086	599
144.952	612
142.818	622
140.684	657
138.548	649.5
136.413	685.5
134.276	680
132.139	708.5
130.002	728.5
127.864	718.5
125.725	762
123.587	780
121.447	803
119.307	831.5
117.166	852.5
115.026	858
112.885	888
110.743	911
108.6	902.5
106.456	926.5
104.313	909.5
102.169	912.5
100.023	892
97.8789	837
95.7328	778.5
93.5869	677
91.4392	581
89.2919	505.5
87.1447	417
84.9959	351
