3528.51	62
3527.23	71
3525.95	74.5
3524.67	69
3523.39	73.5
3522.1	69.5
3520.82	72
3519.54	66.5
3518.26	72.5
3516.97	73.5
3515.69	71
3514.4	81
3513.12	79.5
3511.84	80
3510.55	77
3509.26	78
3507.98	82
3506.69	68
3505.41	77.5
3504.12	78.5
3502.83	89
3501.54	92
3500.26	97
3498.97	94
3497.68	98
3496.39	95.5
3495.1	96
3493.81	93
3492.52	95
3491.23	85
3489.94	96
3488.65	97
3487.36	104
3486.07	114
3484.78	107.5
3483.49	118
3482.19	114
3480.9	118.5
3479.61	107
3478.31	107
3477.02	115.5
3475.73	108
3474.43	124
3473.14	117.5
3471.84	125.5
3470.54	124.5
3469.25	126.5
3467.95	123
3466.66	121.5
3465.36	120
3464.06	129
3462.76	113
3461.46	119.5
3460.17	127
3458.87	121
3457.57	135
3456.27	142.5
3454.97	143.5
3453.67	137.5
3452.37	137
3451.07	142
3449.77	141.5
3448.47	143
3447.16	144
3445.86	138
3444.56	142.5
3443.26	157
3441.95	145
3440.65	158.5
3439.35	162.5
3438.04	165.5
3436.74	168
3435.43	172
3434.13	170.5
3432.82	183.5
3431.52	172
3430.21	182.5
3428.9	179
3427.6	186
3426.29	199
3424.98	191
3423.67	201.5
3422.36	207
3421.06	202
3419.75	207
3418.44	206
3417.13	208
3415.82	216
3414.51	208
3413.2	221
3411.88	219.5
3410.57	224.5
3409.26	220
3407.95	238
3406.64	229.5
3405.32	236.5
3404.01	233
3402.7	223.5
3401.38	227
3400.07	232.5
3398.75	236
3397.44	248
3396.12	234
3394.81	256.5
3393.49	230.5
3392.18	247.5
3390.86	250.5
3389.54	261.5
3388.23	258
3386.91	255.5
3385.59	263
3384.27	260
3382.95	271.5
3381.63	281.5
3380.31	270
3378.99	287.5
3377.67	284.5
3376.35	282
3375.03	298
3373.71	279.5
3372.39	277.5
3371.07	286
3369.75	290.5
3368.42	280.5
3367.1	300
3365.78	301.5
3364.45	307.5
3363.13	318
3361.81	320
3360.48	308.5
3359.16	301
3357.83	305.5
3356.51	298
3355.18	317
3353.85	315.5
3352.53	309.5
3351.2	327
3349.87	331
3348.54	329.5
3347.22	303
3345.89	322
3344.56	314.5
3343.23	319
3341.9	324
3340.57	316
3339.24	321.5
3337.91	321
3336.58	344.5
3335.25	332.5
3333.92	334.5
3332.58	327
3331.25	352
3329.92	334
3328.59	332
3327.25	337
3325.92	341.5
3324.58	349
3323.25	352
3321.92	336.5
3320.58	353
3319.25	345
3317.91	362.5
3316.57	364
3315.24	377
3313.9	349.5
3312.56	353
3311.23	371
3309.89	376
3308.55	378
3307.21	363.5
3305.87	375.5
3304.53	380.5
3303.19	380
3301.85	389
3300.51	388
3299.17	399
3297.83	381.5
3296.49	375.5
3295.15	397.5
3293.81	392.5
3292.46	394
3291.12	387
3289.78	394
3288.43	387
3287.09	391.5
3285.75	391.5
3284.4	401.5
3283.06	395
3281.71	401
3280.37	392
3279.02	397
3277.67	401
3276.33	409.5
3274.98	420
3273.63	400
3272.28	426
3270.94	432.5
3269.59	439.5
3268.24	428
3266.89	426.5
3265.54	440.5
3264.19	433.5
3262.84	456
3261.49	454.5
3260.14	466.5
3258.79	495
3257.44	480.5
3256.08	510
3254.73	506
3253.38	521.5
3252.03	514.5
3250.67	549.5
3249.32	546.5
3247.96	557
3246.61	593.5
3245.26	602.5
3243.9	607
3242.54	626
3241.19	656.5
3239.83	667.5
3238.48	693.5
3237.12	674
3235.76	720
3234.41	713
3233.05	736
3231.69	759
3230.33	768
3228.97	771.5
3227.61	798
3226.25	816.5
3224.89	818.5
3223.53	869
3222.17	873
3220.81	883
3219.45	858
3218.09	878.5
3216.72	899.5
3215.36	907.5
3214	920.5
3212.63	909.5
3211.27	902.5
3209.91	946
3208.54	950
3207.18	945
3205.81	954
3204.45	956.5
3203.08	956.5
3201.71	966
3200.35	956.5
3198.98	963
3197.61	968
3196.25	976.5
3194.88	976.5
3193.51	993.5
3192.14	991.5
3190.77	1001
3189.4	1025
3188.03	1012.5
3186.66	1010
3185.29	1021.5
3183.92	1017.5
3182.55	1046
3181.18	1028
3179.81	1046
3178.44	1054
3177.06	1048
3175.69	1082.5
3174.32	1104
3172.94	1068.5
3171.57	1094.5
3170.2	1115
3168.82	1104.5
3167.45	1108.5
3166.07	1151
3164.69	1144.5
3163.32	1148
3161.94	1117
3160.56	1153
3159.19	1164
3157.81	1162.5
3156.43	1184
3155.05	1175
3153.67	1190
3152.3	1205.5
3150.92	1203.5
3149.54	1239.5
3148.16	1237.5
3146.78	1211
3145.4	1257.5
3144.01	1257.5
3142.63	1265.5
3141.25	1289
3139.87	1258.5
3138.49	1269.5
3137.1	1304
3135.72	1295.5
3134.34	1318
3132.95	1302.5
3131.57	1335
3130.18	1364
3128.8	1350.5
3127.41	1355
3126.03	1370
3124.64	1413.5
3123.25	1387.5
3121.87	1402
3120.48	1414
3119.09	1423.5
3117.7	1448.5
3116.32	1423.5
3114.93	1437.5
3113.54	1437
3112.15	1437
3110.76	1437
3109.37	1449
3107.98	1461.5
3106.59	1454
3105.2	1473.5
3103.8	1477
3102.41	1475
3101.02	1452.5
3099.63	1518.5
3098.23	1506.5
3096.84	1523.5
3095.45	1508
3094.05	1516.5
3092.66	1513.5
3091.26	1507.5
3089.87	1536
3088.47	1560
3087.08	1542
3085.68	1556.5
3084.28	1540.5
3082.89	1573
3081.49	1557
3080.09	1587
3078.69	1567.5
3077.3	1574.5
3075.9	1605
3074.5	1579
3073.1	1622
3071.7	1575.5
3070.3	1580.5
3068.9	1601
3067.5	1621
3066.09	1603.5
3064.69	1619.5
3063.29	1595
3061.89	1595.5
3060.48	1644
3059.08	1630.5
3057.68	1651
3056.27	1626
3054.87	1637.5
3053.46	1672
3052.06	1657
3050.65	1656
3049.25	1676
3047.84	1662.5
3046.44	1671.5
3045.03	1681
3043.62	1701.5
3042.21	1685.5
3040.81	1701.5
3039.4	1713.5
3037.99	1699.5
3036.58	1700.5
3035.17	1738.5
3033.76	1730.5
3032.35	1755
3030.94	1723
3029.53	1755
3028.12	1734
3026.71	1767
3025.29	1738.5
3023.88	1806
3022.47	1770.5
3021.06	1762
3019.64	1766.5
3018.23	1754
3016.82	1787.5
3015.4	1775
3013.99	1775
3012.57	1782
3011.15	1777.5
3009.74	1830
3008.32	1777
3006.91	1794
3005.49	1807.5
3004.07	1815.5
3002.65	1837
3001.24	1843
2999.82	1833
2998.4	1843.5
2996.98	1843.5
2995.56	1859
2994.14	1855
2992.72	1867.5
2991.3	1898
2989.88	1926.5
2988.46	1945
2987.03	1929.5
2985.61	1954
2984.19	1939.5
2982.77	1967.5
2981.34	1969
2979.92	1992.5
2978.49	1971
2977.07	2005
2975.65	2010.5
2974.22	2050
2972.79	2021
2971.37	2076
2969.94	2042.5
2968.52	2083.5
2967.09	2044
2965.66	2075
2964.23	2049.5
2962.81	2106.5
2961.38	2116.5
2959.95	2145.5
2958.52	2090.5
2957.09	2194.5
2955.66	2147
2954.23	2162
2952.8	2161
2951.37	2234
2949.94	2181.5
2948.5	2202.5
2947.07	2217.5
2945.64	2215.5
2944.21	2243
2942.77	2232.5
2941.34	2287.5
2939.91	2279.5
2938.47	2299
2937.04	2313.5
2935.6	2325
2934.17	2336
2932.73	2347
2931.29	2339
2929.86	2364
2928.42	2385.5
2926.98	2356.5
2925.55	2396
2924.11	2398
2922.67	2419
2921.23	2451
2919.79	2437
2918.35	2453.5
2916.91	2477.5
2915.47	2471
2914.03	2483
2912.59	2498.5
2911.15	2462.5
2909.71	2475.5
2908.26	2536.5
2906.82	2504
2905.38	2530.5
2903.94	2526.5
2902.49	2517
2901.05	2570.5
2899.6	2531.5
2898.16	2575
2896.71	2594.5
2895.27	2576
2893.82	2556.5
2892.38	2576.5
2890.93	2557
2889.48	2575.5
2888.03	2586
2886.59	2603
2885.14	2596.5
2883.69	2602
2882.24	2598
2880.79	2604
2879.34	2597.5
2877.89	2574.5
2876.44	2610
2874.99	2589.5
2873.54	2606
2872.09	2608.5
2870.64	2606.5
2869.18	2639
2867.73	2616
2866.28	2571
2864.83	2614.5
2863.37	2638.5
2861.92	2594.5
2860.46	2644
2859.01	2626.5
2857.55	2642
2856.1	2624
2854.64	2634.5
2853.19	2616.5
2851.73	2647
2850.27	2604.5
2848.81	2600.5
2847.36	2614
2845.9	2591.5
2844.44	2576.5
2842.98	2533
2841.52	2523
2840.06	2499.5
2838.6	2476
2837.14	2441.5
2835.68	2434
2834.22	2450
2832.76	2401
2831.3	2382.5
2829.83	2396
2828.37	2379
2826.91	2347.5
2825.44	2325.5
2823.98	2337
2822.52	2305
2821.05	2291.5
2819.59	2300
2818.12	2272.5
2816.66	2300
2815.19	2286
2813.72	2260
2812.26	2256.5
2810.79	2284
2809.32	2236
2807.85	2249.5
2806.38	2241
2804.92	2232.5
2803.45	2208
2801.98	2204
2800.51	2200
2799.04	2244.5
2797.57	2234.5
2796.1	2238
2794.62	2209.5
2793.15	2204
2791.68	2178.5
2790.21	2200.5
2788.73	2190
2787.26	2210.5
2785.79	2210.5
2784.31	2198
2782.84	2190
2781.36	2196.5
2779.89	2195
2778.41	2188.5
2776.94	2193.5
2775.46	2242.5
2773.99	2215
2772.51	2208.5
2771.03	2233.5
2769.55	2234.5
2768.07	2243.5
2766.6	2229
2765.12	2215
2763.64	2261
2762.16	2230
2760.68	2206
2759.2	2214
2757.72	2202.5
2756.24	2222
2754.75	2234
2753.27	2252
2751.79	2203
2750.31	2248
2748.82	2204.5
2747.34	2208.5
2745.86	2219.5
2744.37	2174
2742.89	2233
2741.4	2219.5
2739.92	2204
2738.43	2237
2736.94	2223.5
2735.46	2195
2733.97	2207
2732.48	2242
2731	2229.5
2729.51	2201.5
2728.02	2192.5
2726.53	2174
2725.04	2183
2723.55	2211
2722.06	2217
2720.57	2210
2719.08	2239.5
2717.59	2202
2716.1	2170.5
2714.61	2210.5
2713.11	2207
2711.62	2197.5
2710.13	2213.5
2708.64	2219
2707.14	2168.5
2705.65	2169
2704.15	2177
2702.66	2197
2701.16	2163
2699.67	2177.5
2698.17	2142.5
2696.67	2140.5
2695.18	2168.5
2693.68	2169
2692.18	2173.5
2690.69	2116.5
2689.19	2178
2687.69	2155.5
2686.19	2132.5
2684.69	2130.5
2683.19	2160.5
2681.69	2125
2680.19	2119
2678.69	2130.5
2677.19	2124
2675.68	2127.5
2674.18	2121.5
2672.68	2120
2671.18	2140
2669.67	2088.5
2668.17	2055
2666.66	2132
2665.16	2093.5
2663.66	2085.5
2662.15	2094
2660.64	2102.5
2659.14	2083
2657.63	2097.5
2656.13	2073.5
2654.62	2098.5
2653.11	2051
2651.6	2090
2650.09	2081
2648.58	2062.5
2647.08	2085.5
2645.57	2060
2644.06	2053.5
2642.55	2043.5
2641.04	2064.5
2639.52	2031
2638.01	2031.5
2636.5	2037
2634.99	2013
2633.48	2010
2631.96	2028
2630.45	1992
2628.94	1994.5
2627.42	1984
2625.91	2008.5
2624.39	1994
2622.88	2009.5
2621.36	1989.5
2619.85	2031
2618.33	1999
2616.81	2012
2615.3	2028
2613.78	1993
2612.26	2039.5
2610.74	1984
2609.22	2004.5
2607.7	1968
2606.18	1972.5
2604.66	1990
2603.14	1950
2601.62	1939.5
2600.1	1934
2598.58	1967
2597.06	1949.5
2595.54	1909
2594.01	1919
2592.49	1904.5
2590.97	1911
2589.44	1886.5
2587.92	1891
2586.39	1903
2584.87	1891.5
2583.34	1908
2581.82	1922
2580.29	1904
2578.76	1877
2577.24	1891.5
2575.71	1872.5
2574.18	1883
2572.65	1899
2571.13	1902
2569.6	1905
2568.07	1907.5
2566.54	1884.5
2565.01	1892.5
2563.48	1888
2561.95	1871.5
2560.42	1841
2558.88	1865.5
2557.35	1849.5
2555.82	1867
2554.29	1852
2552.75	1860
2551.22	1834
2549.69	1845
2548.15	1860
2546.62	1818
2545.08	1859.5
2543.55	1812
2542.01	1833.5
2540.47	1819
2538.94	1841.5
2537.4	1816
2535.86	1784.5
2534.33	1802
2532.79	1785.5
2531.25	1781
2529.71	1789
2528.17	1781.5
2526.63	1729.5
2525.09	1773.5
2523.55	1751
2522.01	1741
2520.47	1748.5
2518.92	1736.5
2517.38	1731
2515.84	1741
2514.3	1740.5
2512.75	1725
2511.21	1735
2509.67	1738
2508.12	1736
2506.58	1700.5
2505.03	1722.5
2503.49	1687.5
2501.94	1704
2500.39	1692
2498.85	1697
2497.3	1682
2495.75	1688.5
2494.2	1670
2492.65	1663.5
2491.11	1673.5
2489.56	1648.5
2488.01	1654
2486.46	1662.5
2484.91	1636.5
2483.36	1621
2481.8	1642
2480.25	1633.5
2478.7	1627
2477.15	1628
2475.6	1632.5
2474.04	1615.5
2472.49	1610.5
2470.93	1600
2469.38	1607.5
2467.83	1592.5
2466.27	1589.5
2464.71	1558
2463.16	1572
2461.6	1574
2460.05	1552
2458.49	1557.5
2456.93	1551.5
2455.37	1543
2453.81	1538.5
2452.26	1524.5
2450.7	1528
2449.14	1528
2447.58	1500
2446.02	1494
2444.46	1508
2442.9	1503
2441.33	1497.5
2439.77	1494
2438.21	1532
2436.65	1506.5
2435.08	1507.5
2433.52	1455
2431.96	1494
2430.39	1495
2428.83	1490.5
2427.26	1468.5
2425.7	1445.5
2424.13	1476
2422.56	1475
2421	1452.5
2419.43	1433
2417.86	1435.5
2416.3	1457.5
2414.73	1449.5
2413.16	1423.5
2411.59	1442.5
2410.02	1428.5
2408.45	1429.5
2406.88	1431
2405.31	1428.5
2403.74	1426
2402.17	1440
2400.6	1436
2399.02	1420.5
2397.45	1401
2395.88	1409
2394.3	1407
2392.73	1409.5
2391.16	1415.5
2389.58	1401
2388.01	1414
2386.43	1401.5
2384.86	1409
2383.28	1415
2381.7	1408.5
2380.13	1413.5
2378.55	1409
2376.97	1412.5
2375.39	1400
2373.81	1400.5
2372.23	1404.5
2370.65	1409.5
2369.07	1394
2367.49	1350.5
2365.91	1359.5
2364.33	1374.5
2362.75	1350
2361.17	1354
2359.59	1352
2358.01	1348
2356.42	1332.5
2354.84	1369
2353.25	1347
2351.67	1339
2350.09	1340
2348.5	1353.5
2346.92	1363
2345.33	1349
2343.74	1331
2342.16	1316.5
2340.57	1389
2338.98	1344
2337.39	1325
2335.81	1360
2334.22	1314
2332.63	1323.5
2331.04	1305.5
2329.45	1332
2327.86	1322
2326.27	1314
2324.68	1326.5
2323.09	1299.5
2321.49	1333.5
2319.9	1287
2318.31	1294
2316.72	1288.5
2315.12	1291.5
2313.53	1253.5
2311.93	1290.5
2310.34	1286.5
2308.74	1265
2307.15	1283.5
2305.55	1279
2303.96	1260
2302.36	1246
2300.76	1234
2299.17	1235.5
2297.57	1280
2295.97	1237.5
2294.37	1220
2292.77	1239.5
2291.17	1237.5
2289.57	1217
2287.97	1226.5
2286.37	1213
2284.77	1227.5
2283.17	1257.5
2281.57	1220
2279.96	1225.5
2278.36	1220
2276.76	1217.5
2275.15	1224
2273.55	1220.5
2271.95	1206.5
2270.34	1208.5
2268.74	1210.5
2267.13	1193.5
2265.52	1179.5
2263.92	1195
2262.31	1173
2260.7	1187.5
2259.1	1203
2257.49	1163.5
2255.88	1182
2254.27	1188
2252.66	1170
2251.05	1166
2249.44	1174
2247.83	1164.5
2246.22	1142.5
2244.61	1167
2243	1180
2241.39	1192
2239.77	1170
2238.16	1172
2236.55	1162.5
2234.93	1163
2233.32	1157
2231.7	1154
2230.09	1120
2228.47	1145
2226.86	1123.5
2225.24	1116
2223.63	1141
2222.01	1111
2220.39	1126.5
2218.77	1112
2217.16	1107.5
2215.54	1103
2213.92	1110
2212.3	1088
2210.68	1097
2209.06	1060
2207.44	1094
2205.82	1093.5
2204.19	1073.5
2202.57	1091.5
2200.95	1095
2199.33	1097.5
2197.7	1076
2196.08	1084.5
2194.46	1061
2192.83	1077.5
2191.21	1085.5
2189.58	1064
2187.96	1076.5
2186.33	1058.5
2184.7	1072.5
2183.08	1058.5
2181.45	1063.5
2179.82	1079
2178.19	1061
2176.57	1032.5
2174.94	1041.5
2173.31	1023
2171.68	1026
2170.05	1015.5
2168.42	1036.5
2166.79	1016
2165.16	1028
2163.52	1053
2161.89	1027
2160.26	1014.5
2158.63	1016.5
2156.99	995.5
2155.36	998.5
2153.73	1009.5
2152.09	1000
2150.46	1002.5
2148.82	983.5
2147.18	1011
2145.55	1004
2143.91	993.5
2142.27	1023
2140.64	974
2139	999
2137.36	967
2135.72	975.5
2134.08	986.5
2132.44	954
2130.8	961
2129.16	957
2127.52	952.5
2125.88	977.5
2124.24	946
2122.6	949.5
2120.95	939
2119.31	961
2117.67	924.5
2116.02	958.5
2114.38	934.5
2112.74	931
2111.09	932
2109.45	927.5
2107.8	936
2106.15	934.5
2104.51	925
2102.86	909.5
2101.21	928
2099.56	907.5
2097.92	900.5
2096.27	901
2094.62	911
2092.97	918
2091.32	909
2089.67	924.5
2088.02	911.5
2086.37	937
2084.72	911.5
2083.06	896.5
2081.41	904
2079.76	904.5
2078.1	905
2076.45	885
2074.8	878.5
2073.14	883
2071.49	914
2069.83	914.5
2068.18	903
2066.52	902.5
2064.86	895
2063.21	876
2061.55	877.5
2059.89	881.5
2058.23	879
2056.57	870
2054.92	888.5
2053.26	893
2051.6	898.5
2049.94	891
2048.27	900
2046.61	871
2044.95	897
2043.29	854.5
2041.63	858.5
2039.97	847.5
2038.3	864.5
2036.64	852
2034.97	855.5
2033.31	859.5
2031.64	863.5
2029.98	849.5
2028.31	839
2026.65	849
2024.98	837
2023.31	836.5
2021.65	815.5
2019.98	850.5
2018.31	837
2016.64	835.5
2014.97	842
2013.3	831.5
2011.63	832.5
2009.96	826
2008.29	834
2006.62	826
2004.95	840
2003.28	831
2001.6	823.5
1999.93	831.5
1998.26	816
1996.58	833.5
1994.91	840.5
1993.24	821.5
1991.56	830
1989.89	811
1988.21	832
1986.53	831
1984.86	819.5
1983.18	793.5
1981.5	803.5
1979.82	810.5
1978.15	809
1976.47	811
1974.79	815.5
1973.11	805
1971.43	799.5
1969.75	811
1968.07	805.5
1966.38	801
1964.7	788.5
1963.02	800.5
1961.34	769.5
1959.66	786.5
1957.97	788.5
1956.29	788
1954.6	800
1952.92	782
1951.23	793
1949.55	778.5
1947.86	772
1946.18	758
1944.49	751
1942.8	766.5
1941.11	764.5
1939.43	771
1937.74	758
1936.05	756
1934.36	757.5
1932.67	774
1930.98	757.5
1929.29	760
1927.6	759.5
1925.91	745
1924.21	753.5
1922.52	728.5
1920.83	743.5
1919.14	748.5
1917.44	741
1915.75	759.5
1914.05	747
1912.36	758.5
1910.66	748.5
1908.97	749.5
1907.27	742
1905.58	741
1903.88	721.5
1902.18	715
1900.48	725.5
1898.79	705
1897.09	733.5
1895.39	725
1893.69	710.5
1891.99	712.5
1890.29	712
1888.59	701.5
1886.89	700
1885.18	710.5
1883.48	714.5
1881.78	703.5
1880.08	715
1878.37	695.5
1876.67	714
1874.96	713.5
1873.26	693.5
1871.55	703.5
1869.85	716.5
1868.14	678.5
1866.44	673
1864.73	668.5
1863.02	691.5
1861.32	686
1859.61	698
1857.9	674.5
1856.19	680.5
1854.48	697.5
1852.77	677
1851.06	669
1849.35	675.5
1847.64	678
1845.93	666
1844.21	685
1842.5	673.5
1840.79	661
1839.08	682
1837.36	668
1835.65	663.5
1833.93	685.5
1832.22	678
1830.5	679.5
1828.79	665
1827.07	663
1825.36	670.5
1823.64	654.5
1821.92	643
1820.2	655.5
1818.48	662
1816.77	662.5
1815.05	669
1813.33	674.5
1811.61	665.5
1809.89	655.5
1808.16	647
1806.44	664.5
1804.72	649.5
1803	645
1801.28	644
1799.55	643.5
1797.83	644
1796.11	660
1794.38	632.5
1792.66	628
1790.93	658.5
1789.21	648
1787.48	617.5
1785.75	617.5
1784.03	634
1782.3	644.5
1780.57	642.5
1778.84	632.5
1777.11	642
1775.38	639
1773.66	645
1771.93	632.5
1770.19	640.5
1768.46	649
1766.73	656
1765	661.5
1763.27	683.5
1761.54	673.5
1759.8	689.5
1758.07	719
1756.34	722.5
1754.6	718
1752.87	750
1751.13	735
1749.4	741
1747.66	757.5
1745.92	764
1744.19	747.5
1742.45	729
1740.71	720
1738.97	726
1737.23	715
1735.49	694
1733.75	698
1732.01	683.5
1730.27	679.5
1728.53	706.5
1726.79	633.5
1725.05	663.5
1723.31	674.5
1721.57	650.5
1719.82	657.5
1718.08	637
1716.34	660
1714.59	640.5
1712.85	629.5
1711.1	641
1709.36	642
1707.61	625.5
1705.86	636.5
1704.12	639
1702.37	643.5
1700.62	642.5
1698.87	633.5
1697.12	636.5
1695.37	653
1693.62	638
1691.87	628.5
1690.12	621.5
1688.37	626
1686.62	633
1684.87	658
1683.12	642.5
1681.36	682
1679.61	641
1677.86	665.5
1676.1	677
1674.35	675
1672.59	685
1670.84	698
1669.08	735.5
1667.33	762
1665.57	794
1663.81	877
1662.06	945
1660.3	976
1658.54	1025.5
1656.78	1031
1655.02	976
1653.26	965.5
1651.5	920.5
1649.74	886.5
1647.98	831.5
1646.22	780.5
1644.46	746
1642.7	696.5
1640.93	691.5
1639.17	684.5
1637.41	688
1635.64	687
1633.88	660.5
1632.11	672.5
1630.35	645
1628.58	672
1626.81	645.5
1625.05	632.5
1623.28	640.5
1621.51	638.5
1619.75	653.5
1617.98	632.5
1616.21	645.5
1614.44	624.5
1612.67	618
1610.9	617
1609.13	624.5
1607.36	640
1605.58	600.5
1603.81	619.5
1602.04	632
1600.27	638
1598.49	635.5
1596.72	620.5
1594.95	629
1593.17	613.5
1591.4	615.5
1589.62	642
1587.84	638.5
1586.07	633
1584.29	651.5
1582.51	647.5
1580.74	646.5
1578.96	638.5
1577.18	641.5
1575.4	634
1573.62	639
1571.84	649.5
1570.06	629
1568.28	639
1566.5	626.5
1564.72	636.5
1562.93	653.5
1561.15	635.5
1559.37	652.5
1557.58	649.5
1555.8	638.5
1554.02	661.5
1552.23	654.5
1550.45	645.5
1548.66	641
1546.87	649
1545.09	663
1543.3	621
1541.51	637
1539.72	649.5
1537.94	662.5
1536.15	658.5
1534.36	634.5
1532.57	647
1530.78	626
1528.99	636
1527.2	631.5
1525.4	641.5
1523.61	636
1521.82	652.5
1520.03	659.5
1518.23	643
1516.44	662.5
1514.65	660
1512.85	673
1511.06	662.5
1509.26	675
1507.46	654.5
1505.67	686
1503.87	699
1502.07	674
1500.28	699.5
1498.48	714.5
1496.68	705.5
1494.88	719
1493.08	716.5
1491.28	726
1489.48	738
1487.68	752
1485.88	769.5
1484.08	757.5
1482.27	810
1480.47	812.5
1478.67	811
1476.86	863
1475.06	914
1473.25	951
1471.45	994.5
1469.64	1030.5
1467.84	1094
1466.03	1165.5
1464.23	1207.5
1462.42	1271.5
1460.61	1285.5
1458.8	1358
1456.99	1365.5
1455.18	1409.5
1453.37	1478.5
1451.56	1480.5
1449.75	1537
1447.94	1592
1446.13	1634
1444.32	1678
1442.51	1716
1440.7	1733.5
1438.88	1680.5
1437.07	1563.5
1435.26	1489
1433.44	1355.5
1431.63	1228
1429.81	1156
1427.99	1064
1426.18	982
1424.36	980.5
1422.54	936.5
1420.73	901.5
1418.91	889.5
1417.09	868.5
1415.27	852.5
1413.45	826
1411.63	817
1409.81	799.5
1407.99	778.5
1406.17	781
1404.35	770.5
1402.53	741
1400.7	761.5
1398.88	762.5
1397.06	761.5
1395.23	728.5
1393.41	752.5
1391.58	763.5
1389.76	757.5
1387.93	746.5
1386.11	732.5
1384.28	778.5
1382.45	752
1380.62	756.5
1378.8	725
1376.97	795
1375.14	785
1373.31	784.5
1371.48	782
1369.65	794
1367.82	790
1365.99	791.5
1364.16	825
1362.32	800.5
1360.49	800.5
1358.66	784
1356.82	776.5
1354.99	803
1353.16	806.5
1351.32	796.5
1349.48	817.5
1347.65	817
1345.81	823
1343.98	829.5
1342.14	806
1340.3	829
1338.46	826
1336.62	833
1334.79	850.5
1332.95	847
1331.11	896.5
1329.27	897.5
1327.42	927
1325.58	927
1323.74	973
1321.9	1040.5
1320.06	1032.5
1318.21	1092
1316.37	1125.5
1314.53	1139.5
1312.68	1201.5
1310.84	1285
1308.99	1342
1307.15	1362.5
1305.3	1404.5
1303.45	1463.5
1301.61	1479.5
1299.76	1480.5
1297.91	1433.5
1296.06	1334
1294.21	1308.5
1292.36	1218.5
1290.51	1171
1288.66	1155.5
1286.81	1115.5
1284.96	1110
1283.11	1116.5
1281.26	1114
1279.4	1130
1277.55	1112.5
1275.7	1088
1273.84	1117
1271.99	1122
1270.13	1144
1268.28	1150.5
1266.42	1173.5
1264.56	1149
1262.71	1143
1260.85	1140
1258.99	1108
1257.13	1075.5
1255.27	1040.5
1253.41	1016
1251.56	1014.5
1249.7	983.5
1247.83	981
1245.97	986.5
1244.11	935.5
1242.25	925.5
1240.39	903
1238.52	931.5
1236.66	899
1234.8	892
1232.93	875.5
1231.07	885
1229.2	853.5
1227.34	838.5
1225.47	863
1223.6	869
1221.74	850
1219.87	870.5
1218	856
1216.13	840.5
1214.26	850.5
1212.39	855
1210.53	823
1208.65	851
1206.78	829
1204.91	833
1203.04	837
1201.17	826
1199.3	846
1197.42	841
1195.55	838.5
1193.68	871.5
1191.8	849
1189.93	843.5
1188.05	848
1186.17	848.5
1184.3	852.5
1182.42	835.5
1180.54	865
1178.67	852
1176.79	835
1174.91	840.5
1173.03	864.5
1171.15	879.5
1169.27	848.5
1167.39	847
1165.51	870.5
1163.63	858.5
1161.75	894
1159.86	863
1157.98	868.5
1156.1	883.5
1154.21	876
1152.33	884
1150.44	905
1148.56	878.5
1146.67	868
1144.79	930
1142.9	902.5
1141.01	911
1139.12	923
1137.24	971.5
1135.35	977.5
1133.46	1045.5
1131.57	1071
1129.68	1099.5
1127.79	1070
1125.9	1087
1124.01	1052.5
1122.12	1090
1120.22	1080.5
1118.33	1076
1116.44	1081.5
1114.54	1069
1112.65	1100
1110.75	1054.5
1108.86	1039.5
1106.96	1068.5
1105.07	1093
1103.17	1156.5
1101.27	1141
1099.38	1182
1097.48	1224
1095.58	1241.5
1093.68	1260.5
1091.78	1295
1089.88	1310
1087.98	1324
1086.08	1365.5
1084.18	1353.5
1082.28	1375.5
1080.38	1352.5
1078.47	1333.5
1076.57	1294.5
1074.67	1302.5
1072.76	1296
1070.86	1327
1068.95	1314
1067.05	1362.5
1065.14	1373
1063.24	1389
1061.33	1339.5
1059.42	1245
1057.51	1226
1055.6	1198.5
1053.7	1176.5
1051.79	1172.5
1049.88	1143.5
1047.97	1137.5
1046.06	1143
1044.14	1118.5
1042.23	1139.5
1040.32	1135.5
1038.41	1138
1036.5	1100.5
1034.58	1121
1032.67	1115.5
1030.75	1136
1028.84	1132.5
1026.92	1116
1025.01	1114.5
1023.09	1114.5
1021.17	1150.5
1019.26	1122.5
1017.34	1101
1015.42	1130.5
1013.5	1125
1011.58	1082.5
1009.66	1109.5
1007.74	1087
1005.82	1112
1003.9	1076
1001.98	1099.5
1000.06	1095.5
998.134	1096
996.212	1093.5
994.288	1088.5
992.364	1097.5
990.44	1104.5
988.515	1110.5
986.589	1134
984.663	1183
982.737	1166
980.81	1206.5
978.883	1222
976.955	1230.5
975.027	1256
973.098	1264.5
971.169	1250.5
969.239	1264.5
967.308	1236.5
965.378	1225.5
963.447	1261.5
961.516	1244
959.583	1254
957.65	1277.5
955.718	1303.5
953.784	1260.5
951.85	1288
949.916	1303
947.981	1298.5
946.045	1305
944.109	1286.5
942.173	1293.5
940.236	1310
938.298	1348.5
936.36	1325
934.422	1297
932.484	1320
930.544	1287
928.604	1252.5
926.664	1300.5
924.724	1285
922.782	1268
920.84	1278.5
918.898	1276
916.955	1292
915.012	1306
913.068	1313.5
911.124	1335
909.18	1327.5
907.235	1328.5
905.289	1350
903.343	1345
901.397	1330.5
899.45	1347
897.502	1377.5
895.554	1378
893.605	1438
891.657	1435
889.707	1431.5
887.758	1448
885.807	1455
883.856	1451.5
881.905	1446
879.953	1459.5
878.001	1460.5
876.048	1485
874.094	1511
872.14	1512
870.186	1506
868.232	1506.5
866.276	1474.5
864.321	1484
862.365	1514
860.408	1496
858.451	1471
856.493	1452
854.535	1474
852.576	1465.5
850.617	1477.5
848.658	1469.5
846.698	1472.5
844.737	1489
842.776	1452.5
840.814	1422
838.852	1444
836.89	1406
834.927	1416.5
832.963	1363.5
830.999	1367
829.035	1340.5
827.07	1361.5
825.105	1310.5
823.139	1291
821.172	1302.5
819.206	1305
817.238	1294
815.27	1270.5
813.301	1302.5
811.333	1259
809.363	1240.5
807.394	1270.5
805.424	1234.5
803.453	1240
801.482	1216.5
799.509	1236.5
797.538	1175.5
795.565	1208
793.592	1200.5
791.618	1148
789.643	1169.5
787.669	1162.5
785.693	1181.5
783.718	1203
781.742	1206
779.765	1192
777.788	1204
775.811	1154
773.832	1206
771.853	1197.5
769.875	1178.5
767.895	1176.5
765.915	1157.5
763.934	1171.5
761.953	1195
759.972	1195.5
757.99	1183.5
756.007	1190.5
754.024	1194
752.041	1190
750.056	1201.5
748.072	1177
746.087	1214
744.102	1190
742.116	1196.5
740.13	1226
738.143	1232.5
736.155	1198.5
734.167	1229.5
732.179	1210.5
730.19	1254
728.2	1218
726.21	1232
724.22	1265
722.229	1212.5
720.237	1240
718.246	1202.5
716.253	1223
714.26	1233.5
712.267	1249.5
710.273	1241.5
708.279	1205
706.284	1227.5
704.289	1216.5
702.293	1203.5
700.296	1225.5
698.3	1229.5
696.303	1190.5
694.305	1176
692.307	1219.5
690.307	1228.5
688.308	1250
686.309	1221
684.308	1244.5
682.308	1254
680.306	1235.5
678.304	1242
676.302	1205
674.3	1261
672.296	1256
670.293	1259.5
668.289	1262.5
666.284	1234.5
664.278	1276
662.273	1252.5
660.266	1275
658.26	1234
656.252	1233.5
654.244	1253
652.237	1263.5
650.227	1278.5
648.218	1278
646.209	1319
644.198	1293.5
642.188	1297
640.177	1298.5
638.165	1323.5
636.153	1297.5
634.14	1303
632.128	1339
630.113	1323.5
628.099	1333.5
626.085	1342.5
624.07	1325
622.054	1338.5
620.038	1363
618.021	1349.5
616.004	1349
613.986	1362.5
611.968	1353
609.949	1393
607.93	1386
605.911	1382
603.891	1384.5
601.87	1393.5
599.848	1387.5
597.827	1396
595.805	1393
593.782	1404.5
591.759	1417.5
589.735	1399
587.711	1379
585.687	1407
583.661	1389.5
581.636	1393
579.609	1373.5
577.583	1370.5
575.555	1385
573.527	1395
571.5	1382.5
569.471	1409.5
567.441	1367.5
565.412	1377.5
563.382	1403
561.351	1421.5
559.32	1437
557.289	1436
555.257	1459.5
553.223	1430.5
551.19	1450.5
549.157	1480.5
547.122	1485
545.088	1476
543.053	1531
541.017	1520
538.981	1554
536.943	1649.5
534.907	1711
532.869	1844
530.831	2041
528.792	2443.5
526.752	3135
524.713	4007.5
522.673	4805.5
520.632	4849
518.591	4213
516.549	3439
514.507	2736.5
512.464	2226.5
510.42	1973
508.377	1843
506.332	1712
504.288	1653.5
502.242	1687
500.196	1609
498.15	1604.5
496.104	1620
494.056	1581
492.008	1590.5
489.96	1592
487.911	1566
485.862	1578.5
483.812	1621
481.761	1573
479.71	1626
477.659	1595.5
475.607	1579.5
473.555	1572.5
471.502	1575.5
469.448	1592
467.395	1579
465.34	1570
463.285	1576.5
461.23	1588.5
459.174	1588.5
457.118	1610.5
455.061	1601
453.003	1604.5
450.945	1592
448.887	1620.5
446.828	1615
444.768	1609.5
442.708	1633.5
440.647	1676
438.587	1628
436.525	1620.5
434.463	1637.5
432.4	1671
430.337	1710.5
428.274	1655
426.21	1632.5
424.145	1693.5
422.079	1690.5
420.014	1673.5
417.948	1673
415.882	1667
413.814	1702.5
411.746	1702
409.679	1682.5
407.609	1721
405.54	1705
403.47	1712.5
401.401	1712
399.329	1700.5
397.258	1676.5
395.187	1716
393.114	1674.5
391.041	1705
388.968	1700
386.895	1731.5
384.82	1750.5
382.745	1724.5
380.67	1724
378.594	1697.5
376.517	1722
374.44	1760
372.363	1744.5
370.286	1768
368.207	1731
366.128	1788.5
364.049	1798
361.969	1780
359.888	1787.5
357.807	1765
355.725	1782
353.643	1787.5
351.561	1788
349.477	1771
347.394	1815.5
345.31	1817
343.226	1811.5
341.141	1815.5
339.055	1788.5
336.968	1813.5
334.882	1848.5
332.795	1820.5
330.707	1850
328.618	1803.5
326.53	1857
324.44	1855.5
322.351	1875
320.26	1906
318.17	1932
316.078	1923.5
313.987	1941.5
311.895	1904.5
309.802	2014
307.708	2029.5
305.614	2005
303.52	2008.5
301.425	2041.5
299.329	2029.5
297.233	2037
295.137	2025
293.039	2030
290.942	2000
288.844	2011.5
286.745	2049.5
284.647	2044.5
282.546	2042
280.446	2039
278.346	2034
276.245	2074
274.143	2057
272.041	2005
269.939	2031.5
267.835	2034.5
265.731	2078
263.627	2126.5
261.522	2070.5
259.417	2081.5
257.311	2097
255.204	2101.5
253.098	2099
250.99	2088
248.882	2151.5
246.774	2137
244.664	2165
242.555	2185
240.445	2216
238.334	2165
236.223	2164
234.112	2230.5
232	2197.5
229.888	2216
227.775	2217
225.661	2279.5
223.546	2257
221.431	2242.5
219.316	2293
217.201	2280.5
215.084	2287
212.967	2281
210.85	2351
208.732	2279.5
206.614	2305
204.495	2300.5
202.375	2315.5
200.256	2271
198.135	2241
196.014	2268.5
193.893	2235
191.771	2281
189.648	2247.5
187.525	2274.5
185.401	2219
183.277	2242.5
181.152	2254
179.027	2265.5
176.901	2246.5
174.775	2209
172.648	2245
170.521	2222.5
168.393	2263.5
166.265	2266.5
164.136	2248
162.007	2299.5
159.876	2297.5
157.746	2331
155.615	2327.5
153.483	2335.5
151.351	2405.5
149.219	2431.5
147.086	2462.5
144.952	2490
142.818	2512
140.684	2578.5
138.548	2584
136.413	2666.5
134.276	2700.5
132.139	2763.5
130.002	2793.5
127.864	2806.5
125.725	2908
123.587	2936
121.447	3020
119.307	3098.5
117.166	3157.5
115.026	3181.5
112.885	3263.5
110.743	3301.5
108.6	3351.5
106.456	3416.5
104.313	3374
102.169	3359
100.023	3246.5
97.8789	2985
95.7328	2729
93.5869	2348
91.4392	1992.5
89.2919	1626
87.1447	1265.5
84.9959	992
