3528.51	152
3527.23	179
3525.95	165
3524.67	168
3523.39	186.5
3522.1	184.5
3520.82	184
3519.54	190.5
3518.26	187.5
3516.97	187
3515.69	185
3514.4	192
3513.12	197
3511.84	183.5
3510.55	196
3509.26	198
3507.98	202.5
3506.69	203
3505.41	199
3504.12	205.5
3502.83	204
3501.54	202
3500.26	220.5
3498.97	209.5
3497.68	217
3496.39	219.5
3495.1	221.5
3493.81	226
3492.52	223.5
3491.23	233.5
3489.94	233.5
3488.65	237
3487.36	230
3486.07	246.5
3484.78	251
3483.49	258
3482.19	262.5
3480.9	280
3479.61	271.5
3478.31	266
3477.02	277.5
3475.73	265
3474.43	279.5
3473.14	261.5
3471.84	270
3470.54	280.5
3469.25	282
3467.95	300.5
3466.66	289.5
3465.36	290.5
3464.06	292.5
3462.76	303
3461.46	303.5
3460.17	296
3458.87	290
3457.57	290
3456.27	318.5
3454.97	303
3453.67	308.5
3452.37	320
3451.07	321
3449.77	321.5
3448.47	322
3447.16	322.5
3445.86	325.5
3444.56	341
3443.26	341.5
3441.95	347
3440.65	359
3439.35	357.5
3438.04	371
3436.74	387.5
3435.43	391.5
3434.13	373.5
3432.82	393
3431.52	397
3430.21	408
3428.9	410
3427.6	417.5
3426.29	420
3424.98	431
3423.67	443.5
3422.36	445
3421.06	449.5
3419.75	466.5
3418.44	480
3417.13	471.5
3415.82	474.5
3414.51	481.5
3413.2	476.5
3411.88	488
3410.57	486.5
3409.26	506
3407.95	493
3406.64	497
3405.32	513
3404.01	520
3402.7	497.5
3401.38	509
3400.07	518.5
3398.75	518.5
3397.44	510.5
3396.12	540.5
3394.81	527.5
3393.49	543.5
3392.18	560
3390.86	540.5
3389.54	567
3388.23	557.5
3386.91	580
3385.59	572
3384.27	586
3382.95	578
3381.63	594.5
3380.31	604
3378.99	600
3377.67	619.5
3376.35	625.5
3375.03	630.5
3373.71	633
3372.39	618.5
3371.07	624
3369.75	637.5
3368.42	643.5
3367.1	643.5
3365.78	654
3364.45	653
3363.13	675
3361.81	679
3360.48	683
3359.16	689
3357.83	682.5
3356.51	686
3355.18	686
3353.85	666
3352.53	693.5
3351.2	667.5
3349.87	695.5
3348.54	703.5
3347.22	709
3345.89	685.5
3344.56	697.5
3343.23	748.5
3341.9	710.5
3340.57	716
3339.24	703
3337.91	708
3336.58	724.5
3335.25	719.5
3333.92	735.5
3332.58	725.5
3331.25	729
3329.92	736
3328.59	749
3327.25	743.5
3325.92	741
3324.58	750.5
3323.25	732.5
3321.92	744.5
3320.58	762
3319.25	762
3317.91	744.5
3316.57	769.5
3315.24	759.5
3313.9	793
3312.56	792
3311.23	791.5
3309.89	778.5
3308.55	799.5
3307.21	812
3305.87	804.5
3304.53	788
3303.19	820
3301.85	816
3300.51	822.5
3299.17	833.5
3297.83	817.5
3296.49	823.5
3295.15	855
3293.81	836
3292.46	836.5
3291.12	838
3289.78	827
3288.43	840.5
3287.09	849
3285.75	863
3284.4	844
3283.06	848.5
3281.71	847
3280.37	872
3279.02	882.5
3277.67	876
3276.33	865
3274.98	882.5
3273.63	876
3272.28	898
3270.94	905
3269.59	905
3268.24	924.5
3266.89	945
3265.54	930
3264.19	952
3262.84	971.5
3261.49	961
3260.14	1019.5
3258.79	1011
3257.44	1024
3256.08	1038
3254.73	1068.5
3253.38	1096.5
3252.03	1106
3250.67	1136.5
3249.32	1177.5
3247.96	1178.5
3246.61	1226.5
3245.26	1275.5
3243.9	1288.5
3242.54	1337
3241.19	1351
3239.83	1375.5
3238.48	1413
3237.12	1440.5
3235.76	1473
3234.41	1561
3233.05	1533
3231.69	1598
3230.33	1626
3228.97	1660
3227.61	1715.5
3226.25	1731.5
3224.89	1752.5
3223.53	1797
3222.17	1807
3220.81	1832.5
3219.45	1854.5
3218.09	1863.5
3216.72	1903
3215.36	1907
3214	1915
3212.63	1965.5
3211.27	1930.5
3209.91	1944
3208.54	2002
3207.18	1979.5
3205.81	2017
3204.45	2021.5
3203.08	2009
3201.71	2058.5
3200.35	2057
3198.98	2051.5
3197.61	2085
3196.25	2071
3194.88	2093.5
3193.51	2106.5
3192.14	2151
3190.77	2123.5
3189.4	2120
3188.03	2121.5
3186.66	2162.5
3185.29	2162
3183.92	2177
3182.55	2172.5
3181.18	2154.5
3179.81	2217
3178.44	2231.5
3177.06	2265
3175.69	2320
3174.32	2306.5
3172.94	2306.5
3171.57	2286
3170.2	2303.5
3168.82	2358
3167.45	2341.5
3166.07	2367
3164.69	2370.5
3163.32	2407
3161.94	2450
3160.56	2439.5
3159.19	2464.5
3157.81	2501
3156.43	2486.5
3155.05	2521
3153.67	2574.5
3152.3	2570
3150.92	2584.5
3149.54	2595.5
3148.16	2618
3146.78	2599.5
3145.4	2670
3144.01	2655
3142.63	2660
3141.25	2694
3139.87	2719
3138.49	2732
3137.1	2748
3135.72	2756.5
3134.34	2759.5
3132.95	2785.5
3131.57	2843
3130.18	2840
3128.8	2852.5
3127.41	2882
3126.03	2919.5
3124.64	2885.5
3123.25	2931.5
3121.87	2933.5
3120.48	2935
3119.09	2972.5
3117.7	3023.5
3116.32	2992
3114.93	3025
3113.54	3041.5
3112.15	3048.5
3110.76	3059.5
3109.37	3063.5
3107.98	3063
3106.59	3071.5
3105.2	3091.5
3103.8	3099.5
3102.41	3138.5
3101.02	3113.5
3099.63	3142.5
3098.23	3186
3096.84	3202
3095.45	3200
3094.05	3209
3092.66	3216.5
3091.26	3210
3089.87	3243
3088.47	3242
3087.08	3253
3085.68	3264.5
3084.28	3233
3082.89	3312.5
3081.49	3314
3080.09	3331
3078.69	3314
3077.3	3325
3075.9	3336.5
3074.5	3332
3073.1	3332
3071.7	3341.5
3070.3	3344.5
3068.9	3388
3067.5	3386.5
3066.09	3365
3064.69	3378
3063.29	3461
3061.89	3423
3060.48	3443.5
3059.08	3379.5
3057.68	3424.5
3056.27	3438.5
3054.87	3436.5
3053.46	3470
3052.06	3475
3050.65	3515.5
3049.25	3519
3047.84	3490.5
3046.44	3540
3045.03	3548.5
3043.62	3566.5
3042.21	3573
3040.81	3548
3039.4	3582.5
3037.99	3591.5
3036.58	3595
3035.17	3614.5
3033.76	3606.5
3032.35	3613
3030.94	3631.5
3029.53	3698.5
3028.12	3681
3026.71	3638.5
3025.29	3682
3023.88	3657.5
3022.47	3677
3021.06	3703.5
3019.64	3696
3018.23	3695
3016.82	3711.5
3015.4	3699.5
3013.99	3690.5
3012.57	3715
3011.15	3736.5
3009.74	3725.5
3008.32	3761.5
3006.91	3808
3005.49	3747.5
3004.07	3803.5
3002.65	3818
3001.24	3804.5
2999.82	3826.5
2998.4	3844
2996.98	3885.5
2995.56	3871
2994.14	3885.5
2992.72	3912.5
2991.3	3913
2989.88	3927.5
2988.46	3959.5
2987.03	3972
2985.61	4012.5
2984.19	3996.5
2982.77	4057.5
2981.34	4080.5
2979.92	4113.5
2978.49	4088.5
2977.07	4154
2975.65	4147.5
2974.22	4195
2972.79	4221
2971.37	4228.5
2969.94	4239.5
2968.52	4219
2967.09	4243.5
2965.66	4287.5
2964.23	4260.5
2962.81	4270
2961.38	4316
2959.95	4277
2958.52	4302.5
2957.09	4329
2955.66	4372.5
2954.23	4364.5
2952.8	4360.5
2951.37	4369.5
2949.94	4380
2948.5	4387.5
2947.07	4389.5
2945.64	4416
2944.21	4438.5
2942.77	4452.5
2941.34	4470.5
2939.91	4482.5
2938.47	4492.5
2937.04	4558
2935.6	4557.5
2934.17	4591
2932.73	4586.5
2931.29	4624
2929.86	4623.5
2928.42	4672.5
2926.98	4666
2925.55	4652.5
2924.11	4677.5
2922.67	4662.5
2921.23	4772
2919.79	4742
2918.35	4687
2916.91	4749
2915.47	4740
2914.03	4785
2912.59	4824
2911.15	4747.5
2909.71	4831.5
2908.26	4806
2906.82	4784
2905.38	4857.5
2903.94	4814.5
2902.49	4817.5
2901.05	4882
2899.6	4902
2898.16	4909.5
2896.71	4908
2895.27	4895.5
2893.82	4928
2892.38	4926.5
2890.93	4904.5
2889.48	4931
2888.03	4897
2886.59	4964
2885.14	4937
2883.69	4962.5
2882.24	4986
2880.79	4984
2879.34	4979.5
2877.89	4970.5
2876.44	5016.5
2874.99	4965
2873.54	4960
2872.09	4967.5
2870.64	4962.5
2869.18	5001.5
2867.73	4983.5
2866.28	4949.5
2864.83	5016
2863.37	5024.5
2861.92	4993
2860.46	5042
2859.01	5017.5
2857.55	5021.5
2856.1	5006
2854.64	5001.5
2853.19	5056.5
2851.73	5026.5
2850.27	5047.5
2848.81	5028.5
2847.36	5017.5
2845.9	5012.5
2844.44	4992
2842.98	4945.5
2841.52	4915.5
2840.06	4954
2838.6	4866.5
2837.14	4860.5
2835.68	4851.5
2834.22	4857
2832.76	4828.5
2831.3	4830.5
2829.83	4801
2828.37	4845
2826.91	4748.5
2825.44	4764.5
2823.98	4702.5
2822.52	4744
2821.05	4743
2819.59	4682.5
2818.12	4673
2816.66	4683.5
2815.19	4710
2813.72	4684.5
2812.26	4619.5
2810.79	4672
2809.32	4648.5
2807.85	4663
2806.38	4644
2804.92	4624.5
2803.45	4648.5
2801.98	4617.5
2800.51	4607.5
2799.04	4579.5
2797.57	4570
2796.1	4568.5
2794.62	4576.5
2793.15	4566.5
2791.68	4594.5
2790.21	4578.5
2788.73	4555
2787.26	4600
2785.79	4596
2784.31	4597.5
2782.84	4553
2781.36	4556
2779.89	4573.5
2778.41	4547.5
2776.94	4571
2775.46	4605.5
2773.99	4601.5
2772.51	4585.5
2771.03	4591.5
2769.55	4623.5
2768.07	4637
2766.6	4605.5
2765.12	4637.5
2763.64	4639.5
2762.16	4586
2760.68	4628.5
2759.2	4606.5
2757.72	4624.5
2756.24	4605
2754.75	4571.5
2753.27	4582.5
2751.79	4598
2750.31	4594
2748.82	4580
2747.34	4635.5
2745.86	4546
2744.37	4594.5
2742.89	4606
2741.4	4595.5
2739.92	4570
2738.43	4587.5
2736.94	4574.5
2735.46	4615
2733.97	4623.5
2732.48	4582
2731	4572.5
2729.51	4530.5
2728.02	4560
2726.53	4611.5
2725.04	4608.5
2723.55	4562.5
2722.06	4544
2720.57	4556.5
2719.08	4536.5
2717.59	4547.5
2716.1	4553.5
2714.61	4569
2713.11	4544.5
2711.62	4531.5
2710.13	4572.5
2708.64	4554.5
2707.14	4561.5
2705.65	4532
2704.15	4519.5
2702.66	4523.5
2701.16	4516.5
2699.67	4499.5
2698.17	4476.5
2696.67	4525.5
2695.18	4484
2693.68	4445
2692.18	4512.5
2690.69	4445
2689.19	4454.5
2687.69	4494
2686.19	4401.5
2684.69	4435
2683.19	4405.5
2681.69	4458.5
2680.19	4427
2678.69	4450
2677.19	4368
2675.68	4360.5
2674.18	4357
2672.68	4381
2671.18	4390
2669.67	4397
2668.17	4337.5
2666.66	4337.5
2665.16	4345.5
2663.66	4339.5
2662.15	4345.5
2660.64	4343.5
2659.14	4330.5
2657.63	4321.5
2656.13	4324.5
2654.62	4304.5
2653.11	4347.5
2651.6	4309.5
2650.09	4257.5
2648.58	4297
2647.08	4313
2645.57	4289
2644.06	4254.5
2642.55	4243.5
2641.04	4259
2639.52	4197
2638.01	4202
2636.5	4185
2634.99	4228
2633.48	4170
2631.96	4184.5
2630.45	4190
2628.94	4188.5
2627.42	4141
2625.91	4161.5
2624.39	4121.5
2622.88	4142
2621.36	4140
2619.85	4153
2618.33	4095.5
2616.81	4074
2615.3	4134
2613.78	4060.5
2612.26	4091.5
2610.74	4095.5
2609.22	4116.5
2607.7	4084.5
2606.18	4026.5
2604.66	4091.5
2603.14	4008
2601.62	3979
2600.1	3923
2598.58	3976.5
2597.06	3962
2595.54	3954.5
2594.01	3932.5
2592.49	3935.5
2590.97	3952.5
2589.44	3967
2587.92	3932.5
2586.39	3936.5
2584.87	3914.5
2583.34	3921.5
2581.82	3917
2580.29	3942
2578.76	3930
2577.24	3858.5
2575.71	3911.5
2574.18	3839.5
2572.65	3897.5
2571.13	3923.5
2569.6	3894
2568.07	3870.5
2566.54	3825
2565.01	3880
2563.48	3880
2561.95	3861
2560.42	3890
2558.88	3867.5
2557.35	3859.5
2555.82	3843.5
2554.29	3829
2552.75	3808.5
2551.22	3773.5
2549.69	3780
2548.15	3777.5
2546.62	3759
2545.08	3722.5
2543.55	3717
2542.01	3773
2540.47	3724.5
2538.94	3684
2537.4	3713.5
2535.86	3672.5
2534.33	3672.5
2532.79	3677
2531.25	3639
2529.71	3635
2528.17	3668
2526.63	3621.5
2525.09	3613
2523.55	3593
2522.01	3599.5
2520.47	3590.5
2518.92	3552
2517.38	3542
2515.84	3526.5
2514.3	3564.5
2512.75	3543
2511.21	3545.5
2509.67	3572
2508.12	3462.5
2506.58	3483
2505.03	3488.5
2503.49	3457
2501.94	3456
2500.39	3442.5
2498.85	3449
2497.3	3458.5
2495.75	3411
2494.2	3400
2492.65	3418.5
2491.11	3397.5
2489.56	3357
2488.01	3372.5
2486.46	3370.5
2484.91	3358
2483.36	3307
2481.8	3326
2480.25	3311
2478.7	3293.5
2477.15	3306
2475.6	3285
2474.04	3274
2472.49	3256.5
2470.93	3237.5
2469.38	3256
2467.83	3209.5
2466.27	3209
2464.71	3192.5
2463.16	3197.5
2461.6	3174
2460.05	3132.5
2458.49	3125
2456.93	3151.5
2455.37	3162.5
2453.81	3070
2452.26	3095
2450.7	3069.5
2449.14	3084.5
2447.58	3070.5
2446.02	3030
2444.46	3043
2442.9	2996.5
2441.33	3034
2439.77	2988.5
2438.21	3002
2436.65	3023.5
2435.08	2984
2433.52	2974.5
2431.96	2975
2430.39	2983.5
2428.83	2993.5
2427.26	2960.5
2425.7	2957
2424.13	2928
2422.56	2918
2421	2898
2419.43	2913.5
2417.86	2908.5
2416.3	2936
2414.73	2882
2413.16	2899.5
2411.59	2864.5
2410.02	2859
2408.45	2884.5
2406.88	2855
2405.31	2844
2403.74	2833
2402.17	2884
2400.6	2832
2399.02	2812.5
2397.45	2810
2395.88	2821
2394.3	2861.5
2392.73	2826.5
2391.16	2805.5
2389.58	2763.5
2388.01	2785.5
2386.43	2796.5
2384.86	2784.5
2383.28	2791.5
2381.7	2796
2380.13	2814.5
2378.55	2791
2376.97	2754
2375.39	2750.5
2373.81	2764.5
2372.23	2718.5
2370.65	2740
2369.07	2712
2367.49	2706
2365.91	2736.5
2364.33	2723
2362.75	2688.5
2361.17	2714.5
2359.59	2678
2358.01	2675.5
2356.42	2684
2354.84	2687.5
2353.25	2634
2351.67	2617
2350.09	2657
2348.5	2630.5
2346.92	2650.5
2345.33	2663.5
2343.74	2644.5
2342.16	2631.5
2340.57	2642.5
2338.98	2624
2337.39	2615
2335.81	2590.5
2334.22	2606
2332.63	2549
2331.04	2591
2329.45	2562.5
2327.86	2559.5
2326.27	2604.5
2324.68	2577.5
2323.09	2559
2321.49	2562
2319.9	2567
2318.31	2526.5
2316.72	2502.5
2315.12	2498.5
2313.53	2505
2311.93	2502
2310.34	2473
2308.74	2467
2307.15	2444.5
2305.55	2432
2303.96	2462
2302.36	2443
2300.76	2439
2299.17	2387.5
2297.57	2390.5
2295.97	2404.5
2294.37	2408.5
2292.77	2398.5
2291.17	2371.5
2289.57	2362.5
2287.97	2342.5
2286.37	2400.5
2284.77	2327.5
2283.17	2345
2281.57	2338.5
2279.96	2336
2278.36	2375.5
2276.76	2370
2275.15	2330.5
2273.55	2317.5
2271.95	2323.5
2270.34	2325
2268.74	2318.5
2267.13	2307.5
2265.52	2291.5
2263.92	2260.5
2262.31	2265.5
2260.7	2284.5
2259.1	2264.5
2257.49	2228
2255.88	2232
2254.27	2226.5
2252.66	2252
2251.05	2251.5
2249.44	2209
2247.83	2222
2246.22	2202.5
2244.61	2211.5
2243	2177.5
2241.39	2219
2239.77	2209
2238.16	2172
2236.55	2147.5
2234.93	2170.5
2233.32	2165.5
2231.7	2144.5
2230.09	2124
2228.47	2126
2226.86	2127
2225.24	2091.5
2223.63	2101.5
2222.01	2094
2220.39	2103.5
2218.77	2073.5
2217.16	2058
2215.54	2053.5
2213.92	2046
2212.3	2047
2210.68	2044.5
2209.06	1991.5
2207.44	1991.5
2205.82	1979
2204.19	1992.5
2202.57	2015
2200.95	1985
2199.33	2023
2197.7	1973
2196.08	1974
2194.46	1977
2192.83	1983.5
2191.21	1948.5
2189.58	1949.5
2187.96	1987
2186.33	1962.5
2184.7	1961.5
2183.08	1929
2181.45	1919.5
2179.82	1943
2178.19	1910
2176.57	1914.5
2174.94	1890
2173.31	1903
2171.68	1897.5
2170.05	1845
2168.42	1885
2166.79	1861
2165.16	1821
2163.52	1836
2161.89	1849.5
2160.26	1830.5
2158.63	1829.5
2156.99	1819.5
2155.36	1795
2153.73	1790
2152.09	1831
2150.46	1799.5
2148.82	1758
2147.18	1767
2145.55	1781
2143.91	1730
2142.27	1771.5
2140.64	1737.5
2139	1728
2137.36	1743.5
2135.72	1770
2134.08	1734.5
2132.44	1706
2130.8	1666.5
2129.16	1687
2127.52	1687
2125.88	1678
2124.24	1660.5
2122.6	1687
2120.95	1623
2119.31	1653
2117.67	1620
2116.02	1649.5
2114.38	1595.5
2112.74	1607.5
2111.09	1624
2109.45	1585.5
2107.8	1602
2106.15	1578.5
2104.51	1585.5
2102.86	1583
2101.21	1600
2099.56	1564.5
2097.92	1556
2096.27	1560.5
2094.62	1594
2092.97	1559
2091.32	1581
2089.67	1542.5
2088.02	1556
2086.37	1577.5
2084.72	1536.5
2083.06	1551.5
2081.41	1519
2079.76	1549
2078.1	1533
2076.45	1528
2074.8	1531
2073.14	1520.5
2071.49	1516.5
2069.83	1508.5
2068.18	1509.5
2066.52	1497
2064.86	1489.5
2063.21	1507
2061.55	1490.5
2059.89	1489.5
2058.23	1472.5
2056.57	1487
2054.92	1451.5
2053.26	1449.5
2051.6	1453
2049.94	1449.5
2048.27	1452
2046.61	1441.5
2044.95	1413.5
2043.29	1402
2041.63	1447.5
2039.97	1413.5
2038.3	1413.5
2036.64	1409.5
2034.97	1369
2033.31	1376
2031.64	1367.5
2029.98	1380
2028.31	1357.5
2026.65	1371
2024.98	1356
2023.31	1320
2021.65	1347.5
2019.98	1344.5
2018.31	1318.5
2016.64	1323
2014.97	1325.5
2013.3	1287.5
2011.63	1320.5
2009.96	1316
2008.29	1287.5
2006.62	1304
2004.95	1313
2003.28	1265.5
2001.6	1292.5
1999.93	1272
1998.26	1313.5
1996.58	1255
1994.91	1243
1993.24	1265.5
1991.56	1251
1989.89	1248
1988.21	1258.5
1986.53	1250.5
1984.86	1230
1983.18	1245.5
1981.5	1240
1979.82	1257.5
1978.15	1220.5
1976.47	1244.5
1974.79	1208.5
1973.11	1230
1971.43	1213
1969.75	1186.5
1968.07	1209
1966.38	1189.5
1964.7	1190.5
1963.02	1183
1961.34	1175.5
1959.66	1173
1957.97	1162
1956.29	1127
1954.6	1159
1952.92	1146
1951.23	1156.5
1949.55	1157
1947.86	1163
1946.18	1150.5
1944.49	1125
1942.8	1124.5
1941.11	1130
1939.43	1100
1937.74	1119.5
1936.05	1084
1934.36	1098.5
1932.67	1084
1930.98	1108
1929.29	1087
1927.6	1090
1925.91	1067.5
1924.21	1046
1922.52	1069
1920.83	1033
1919.14	1057.5
1917.44	1061.5
1915.75	1071
1914.05	1071.5
1912.36	1044
1910.66	1042.5
1908.97	1051.5
1907.27	1034.5
1905.58	1022.5
1903.88	1012
1902.18	1008.5
1900.48	995
1898.79	1008
1897.09	1002
1895.39	986.5
1893.69	987
1891.99	982.5
1890.29	980.5
1888.59	984
1886.89	987
1885.18	973
1883.48	945.5
1881.78	945.5
1880.08	946
1878.37	924
1876.67	928.5
1874.96	932
1873.26	936.5
1871.55	929
1869.85	946
1868.14	929.5
1866.44	912
1864.73	930.5
1863.02	909.5
1861.32	914.5
1859.61	906.5
1857.9	895
1856.19	884
1854.48	896.5
1852.77	904.5
1851.06	879.5
1849.35	893.5
1847.64	896.5
1845.93	887.5
1844.21	890
1842.5	870
1840.79	878
1839.08	871.5
1837.36	870
1835.65	862.5
1833.93	861.5
1832.22	863
1830.5	866
1828.79	851
1827.07	839.5
1825.36	844.5
1823.64	861.5
1821.92	840
1820.2	838
1818.48	819
1816.77	831.5
1815.05	827
1813.33	813
1811.61	807
1809.89	829.5
1808.16	811.5
1806.44	796
1804.72	781.5
1803	800
1801.28	783.5
1799.55	762.5
1797.83	788
1796.11	783.5
1794.38	783
1792.66	777.5
1790.93	769
1789.21	771
1787.48	765
1785.75	750
1784.03	754.5
1782.3	750.5
1780.57	770
1778.84	768.5
1777.11	761
1775.38	758.5
1773.66	751.5
1771.93	751
1770.19	745
1768.46	748
1766.73	760.5
1765	757
1763.27	753.5
1761.54	770
1759.8	767
1758.07	781
1756.34	795
1754.6	781.5
1752.87	793.5
1751.13	826
1749.4	801.5
1747.66	820
1745.92	826.5
1744.19	809.5
1742.45	798
1740.71	812.5
1738.97	779
1737.23	759
1735.49	761.5
1733.75	746
1732.01	747.5
1730.27	757.5
1728.53	737.5
1726.79	719.5
1725.05	734
1723.31	721.5
1721.57	690
1719.82	679
1718.08	697
1716.34	692
1714.59	691
1712.85	689.5
1711.1	681.5
1709.36	683
1707.61	678
1705.86	681
1704.12	669.5
1702.37	644.5
1700.62	674.5
1698.87	651.5
1697.12	653
1695.37	659.5
1693.62	663
1691.87	657
1690.12	644.5
1688.37	642.5
1686.62	643.5
1684.87	647.5
1683.12	653
1681.36	663.5
1679.61	638.5
1677.86	642
1676.1	679.5
1674.35	674
1672.59	684.5
1670.84	686.5
1669.08	714
1667.33	744
1665.57	756
1663.81	845.5
1662.06	885.5
1660.3	947.5
1658.54	962
1656.78	996.5
1655.02	942
1653.26	920.5
1651.5	864.5
1649.74	834.5
1647.98	771.5
1646.22	736
1644.46	707
1642.7	669.5
1640.93	651
1639.17	619
1637.41	643.5
1635.64	624
1633.88	607.5
1632.11	614.5
1630.35	610.5
1628.58	613
1626.81	598
1625.05	601.5
1623.28	572.5
1621.51	572
1619.75	569.5
1617.98	569
1616.21	574.5
1614.44	574.5
1612.67	563.5
1610.9	568
1609.13	559.5
1607.36	560
1605.58	564
1603.81	568
1602.04	573.5
1600.27	563.5
1598.49	555.5
1596.72	535.5
1594.95	559
1593.17	559
1591.4	544
1589.62	550
1587.84	549
1586.07	546
1584.29	548
1582.51	520.5
1580.74	545
1578.96	540.5
1577.18	523
1575.4	535
1573.62	546.5
1571.84	531.5
1570.06	517.5
1568.28	522
1566.5	539
1564.72	513
1562.93	521
1561.15	527
1559.37	513.5
1557.58	527.5
1555.8	513
1554.02	520
1552.23	524
1550.45	523
1548.66	515
1546.87	523.5
1545.09	524
1543.3	504
1541.51	501.5
1539.72	502
1537.94	492
1536.15	506.5
1534.36	506
1532.57	487.5
1530.78	494
1528.99	504.5
1527.2	503.5
1525.4	504
1523.61	498.5
1521.82	509.5
1520.03	495
1518.23	507.5
1516.44	510
1514.65	515.5
1512.85	483.5
1511.06	521
1509.26	500
1507.46	509.5
1505.67	518
1503.87	511
1502.07	523.5
1500.28	518
1498.48	522.5
1496.68	531
1494.88	531
1493.08	548
1491.28	549
1489.48	540
1487.68	549.5
1485.88	565.5
1484.08	588
1482.27	612.5
1480.47	622
1478.67	654.5
1476.86	671.5
1475.06	711.5
1473.25	756
1471.45	784.5
1469.64	831.5
1467.84	884
1466.03	929.5
1464.23	998
1462.42	1024
1460.61	1094
1458.8	1102
1456.99	1119.5
1455.18	1140.5
1453.37	1211
1451.56	1216
1449.75	1266
1447.94	1338
1446.13	1354.5
1444.32	1400.5
1442.51	1414.5
1440.7	1451.5
1438.88	1381
1437.07	1318
1435.26	1214.5
1433.44	1079
1431.63	996.5
1429.81	859
1427.99	816.5
1426.18	743.5
1424.36	709.5
1422.54	693.5
1420.73	660.5
1418.91	638
1417.09	628.5
1415.27	598
1413.45	576
1411.63	545
1409.81	518
1407.99	520.5
1406.17	545
1404.35	534.5
1402.53	513
1400.7	499
1398.88	501
1397.06	496
1395.23	495.5
1393.41	485.5
1391.58	483
1389.76	490.5
1387.93	475
1386.11	445
1384.28	469
1382.45	486.5
1380.62	475
1378.8	477.5
1376.97	494
1375.14	487
1373.31	485
1371.48	512
1369.65	506
1367.82	498
1365.99	503.5
1364.16	508
1362.32	512
1360.49	498
1358.66	503
1356.82	476.5
1354.99	506.5
1353.16	480
1351.32	489
1349.48	493
1347.65	498.5
1345.81	512.5
1343.98	504
1342.14	492
1340.3	515
1338.46	504
1336.62	514
1334.79	535.5
1332.95	548
1331.11	551
1329.27	550.5
1327.42	590
1325.58	614
1323.74	660
1321.9	656.5
1320.06	704.5
1318.21	725
1316.37	742.5
1314.53	811.5
1312.68	839.5
1310.84	870
1308.99	928
1307.15	974
1305.3	1060.5
1303.45	1099.5
1301.61	1099.5
1299.76	1105
1297.91	1093
1296.06	1038
1294.21	954.5
1292.36	872
1290.51	795.5
1288.66	788
1286.81	726
1284.96	724.5
1283.11	720
1281.26	706
1279.4	740
1277.55	724
1275.7	738.5
1273.84	750
1271.99	741
1270.13	741.5
1268.28	773
1266.42	749.5
1264.56	759
1262.71	728
1260.85	728.5
1258.99	704
1257.13	678
1255.27	668
1253.41	649.5
1251.56	621
1249.7	586.5
1247.83	586
1245.97	568
1244.11	540
1242.25	542
1240.39	524
1238.52	510
1236.66	498
1234.8	479
1232.93	467
1231.07	492.5
1229.2	472
1227.34	462.5
1225.47	468.5
1223.6	464
1221.74	454
1219.87	457
1218	453
1216.13	450
1214.26	460
1212.39	434.5
1210.53	438.5
1208.65	441.5
1206.78	427
1204.91	437
1203.04	415
1201.17	427.5
1199.3	435.5
1197.42	434
1195.55	418.5
1193.68	424
1191.8	434.5
1189.93	435
1188.05	421
1186.17	416.5
1184.3	408.5
1182.42	426.5
1180.54	432.5
1178.67	447
1176.79	433.5
1174.91	425
1173.03	428
1171.15	435
1169.27	422
1167.39	430
1165.51	420.5
1163.63	428.5
1161.75	425
1159.86	429.5
1157.98	433
1156.1	423
1154.21	427.5
1152.33	427.5
1150.44	435
1148.56	436.5
1146.67	453
1144.79	440
1142.9	452
1141.01	465.5
1139.12	475.5
1137.24	492
1135.35	536.5
1133.46	611
1131.57	638
1129.68	647.5
1127.79	652
1125.9	638.5
1124.01	606
1122.12	597.5
1120.22	582.5
1118.33	582.5
1116.44	555.5
1114.54	564
1112.65	579
1110.75	568.5
1108.86	590
1106.96	607
1105.07	602
1103.17	643
1101.27	663.5
1099.38	663.5
1097.48	710
1095.58	705
1093.68	725.5
1091.78	765.5
1089.88	774.5
1087.98	800.5
1086.08	786.5
1084.18	816.5
1082.28	802
1080.38	797
1078.47	796
1076.57	769
1074.67	783.5
1072.76	774.5
1070.86	772
1068.95	798
1067.05	839
1065.14	900
1063.24	864.5
1061.33	842.5
1059.42	768.5
1057.51	712.5
1055.6	669.5
1053.7	627
1051.79	619.5
1049.88	607
1047.97	594
1046.06	602
1044.14	594
1042.23	583
1040.32	608
1038.41	582
1036.5	570.5
1034.58	599
1032.67	563.5
1030.75	569
1028.84	575
1026.92	580
1025.01	570.5
1023.09	572
1021.17	577.5
1019.26	550.5
1017.34	556.5
1015.42	553
1013.5	549
1011.58	560.5
1009.66	548.5
1007.74	526
1005.82	529
1003.9	550
1001.98	538.5
1000.06	532.5
998.134	527
996.212	528
994.288	535
992.364	559
990.44	557
988.515	561
986.589	549.5
984.663	605.5
982.737	598.5
980.81	632
978.883	645
976.955	659
975.027	662
973.098	688
971.169	684.5
969.239	656
967.308	681
965.378	689
963.447	660.5
961.516	664.5
959.583	655.5
957.65	679
955.718	684.5
953.784	650.5
951.85	690.5
949.916	694
947.981	678.5
946.045	703
944.109	715
942.173	721.5
940.236	707
938.298	713
936.36	709.5
934.422	683.5
932.484	680.5
930.544	659
928.604	654.5
926.664	645
924.724	621
922.782	639
920.84	639.5
918.898	650
916.955	642
915.012	655
913.068	640.5
911.124	655.5
909.18	651
907.235	663
905.289	662
903.343	677
901.397	668
899.45	702
897.502	696
895.554	726.5
893.605	746.5
891.657	771
889.707	771
887.758	766
885.807	761.5
883.856	753
881.905	741
879.953	745
878.001	754.5
876.048	781.5
874.094	803.5
872.14	778
870.186	782
868.232	785
866.276	759.5
864.321	767.5
862.365	781.5
860.408	741.5
858.451	741.5
856.493	744
854.535	748
852.576	741.5
850.617	732
848.658	740.5
846.698	733
844.737	736.5
842.776	720.5
840.814	707.5
838.852	708
836.89	685
834.927	654
832.963	660
830.999	648.5
829.035	625
827.07	599
825.105	577
823.139	575
821.172	574.5
819.206	576
817.238	565
815.27	546
813.301	536.5
811.333	524.5
809.363	532
807.394	492
805.424	510.5
803.453	492
801.482	480.5
799.509	474.5
797.538	462
795.565	462.5
793.592	459.5
791.618	447.5
789.643	448
787.669	451.5
785.693	445.5
783.718	439
781.742	462
779.765	436.5
777.788	442.5
775.811	437.5
773.832	459.5
771.853	441.5
769.875	467
767.895	455.5
765.915	436
763.934	448.5
761.953	443.5
759.972	440.5
757.99	426.5
756.007	446
754.024	445
752.041	441.5
750.056	447.5
748.072	462.5
746.087	454
744.102	446.5
742.116	462
740.13	459.5
738.143	459
736.155	452.5
734.167	470
732.179	475.5
730.19	473
728.2	476.5
726.21	467
724.22	467
722.229	474
720.237	460
718.246	464
716.253	448
714.26	460
712.267	463
710.273	453
708.279	441
706.284	439
704.289	437.5
702.293	440
700.296	427
698.3	431.5
696.303	423.5
694.305	435
692.307	435
690.307	427.5
688.308	425
686.309	414
684.308	427
682.308	427
680.306	432.5
678.304	418
676.302	437
674.3	441
672.296	442.5
670.293	415.5
668.289	441.5
666.284	430.5
664.278	446
662.273	452
660.266	441
658.26	456
656.252	446
654.244	443
652.237	439
650.227	459.5
648.218	446.5
646.209	453.5
644.198	474
642.188	464
640.177	478
638.165	454
636.153	459.5
634.14	466
632.128	492
630.113	477.5
628.099	494
626.085	481.5
624.07	508.5
622.054	486
620.038	507
618.021	497.5
616.004	498
613.986	492.5
611.968	514
609.949	506.5
607.93	520
605.911	515
603.891	520.5
601.87	525
599.848	518.5
597.827	514
595.805	520
593.782	515
591.759	527.5
589.735	488
587.711	502.5
585.687	512
583.661	495.5
581.636	497
579.609	504
577.583	485
575.555	512
573.527	487.5
571.5	485.5
569.471	507.5
567.441	510
565.412	501
563.382	511
561.351	495
559.32	501
557.289	510
555.257	538.5
553.223	527
551.19	528
549.157	552.5
547.122	577.5
545.088	574
543.053	602.5
541.017	608.5
538.981	665
536.943	701
534.907	774
532.869	919.5
530.831	1163.5
528.792	1578
526.752	2259
524.713	3254
522.673	4137.5
520.632	4215.5
518.591	3605
516.549	2642
514.507	1886.5
512.464	1366
510.42	1036.5
508.377	847.5
506.332	747
504.288	705.5
502.242	675
500.196	660.5
498.15	650.5
496.104	641
494.056	628
492.008	625
489.96	620.5
487.911	612
485.862	605
483.812	606.5
481.761	621.5
479.71	624.5
477.659	593.5
475.607	618
473.555	620
471.502	608
469.448	579.5
467.395	602
465.34	595
463.285	584.5
461.23	606
459.174	603
457.118	605
455.061	618
453.003	624.5
450.945	620.5
448.887	628
446.828	635
444.768	626
442.708	629
440.647	619
438.587	641
436.525	621
434.463	660
432.4	637
430.337	659
428.274	637.5
426.21	663.5
424.145	659.5
422.079	674
420.014	666
417.948	678.5
415.882	654
413.814	687.5
411.746	689.5
409.679	686.5
407.609	680
405.54	686.5
403.47	698.5
401.401	682
399.329	700
397.258	700
395.187	670.5
393.114	690
391.041	678.5
388.968	694.5
386.895	682.5
384.82	702.5
382.745	704
380.67	711
378.594	702.5
376.517	706.5
374.44	705
372.363	701
370.286	723.5
368.207	722.5
366.128	702.5
364.049	706.5
361.969	734
359.888	734.5
357.807	746.5
355.725	738
353.643	722.5
351.561	719.5
349.477	736.5
347.394	741
345.31	750
343.226	738.5
341.141	763.5
339.055	751
336.968	766
334.882	783.5
332.795	756
330.707	777
328.618	797
326.53	803
324.44	792.5
322.351	816.5
320.26	827
318.17	839
316.078	858
313.987	882
311.895	891
309.802	907.5
307.708	927
305.614	958
303.52	951
301.425	970.5
299.329	942.5
297.233	947
295.137	941
293.039	909
290.942	917.5
288.844	913.5
286.745	925.5
284.647	919.5
282.546	936
280.446	939.5
278.346	909
276.245	957.5
274.143	948.5
272.041	948
269.939	971
267.835	970.5
265.731	959.5
263.627	961.5
261.522	984.5
259.417	1005
257.311	994.5
255.204	1016
253.098	1018
250.99	1038.5
248.882	1034.5
246.774	1060.5
244.664	1047
242.555	1045
240.445	1093.5
238.334	1098
236.223	1115.5
234.112	1102
232	1112.5
229.888	1128.5
227.775	1151.5
225.661	1133.5
223.546	1139
221.431	1169.5
219.316	1179.5
217.201	1190
215.084	1178
212.967	1169.5
210.85	1191.5
208.732	1200.5
206.614	1193.5
204.495	1202
202.375	1195
200.256	1195.5
198.135	1180
196.014	1161.5
193.893	1176
191.771	1187.5
189.648	1169.5
187.525	1190
185.401	1188.5
183.277	1194.5
181.152	1194.5
179.027	1183.5
176.901	1215
174.775	1207
172.648	1212.5
170.521	1208
168.393	1230
166.265	1262.5
164.136	1250.5
162.007	1313.5
159.876	1280
157.746	1332.5
155.615	1330
153.483	1368
151.351	1417.5
149.219	1413.5
147.086	1487
144.952	1507
142.818	1535
140.684	1596.5
138.548	1609
136.413	1642
134.276	1692
132.139	1712
130.002	1791
127.864	1840.5
125.725	1909.5
123.587	1961
121.447	2023
119.307	2059
117.166	2139.5
115.026	2234
112.885	2272.5
110.743	2358
108.6	2387
106.456	2440.5
104.313	2444
102.169	2469
100.023	2324
97.8789	2214
95.7328	2018
93.5869	1770.5
91.4392	1506
89.2919	1234
87.1447	997
84.9959	763.5
