3528.51	270
3527.23	276
3525.95	295.5
3524.67	316
3523.39	328.5
3522.1	312.5
3520.82	307.5
3519.54	321.5
3518.26	309.5
3516.97	322.5
3515.69	322.5
3514.4	317
3513.12	325
3511.84	324.5
3510.55	329.5
3509.26	336
3507.98	343
3506.69	346
3505.41	353.5
3504.12	341.5
3502.83	356
3501.54	343.5
3500.26	335.5
3498.97	358
3497.68	378
3496.39	380
3495.1	371.5
3493.81	377.5
3492.52	391.5
3491.23	394
3489.94	396.5
3488.65	392
3487.36	404
3486.07	409.5
3484.78	413
3483.49	424.5
3482.19	438.5
3480.9	434.5
3479.61	441
3478.31	435.5
3477.02	443
3475.73	446
3474.43	453
3473.14	454.5
3471.84	458.5
3470.54	477.5
3469.25	466
3467.95	462
3466.66	485.5
3465.36	496.5
3464.06	487
3462.76	489.5
3461.46	497.5
3460.17	496.5
3458.87	484
3457.57	498
3456.27	501.5
3454.97	498.5
3453.67	510
3452.37	518
3451.07	524
3449.77	524
3448.47	541.5
3447.16	551.5
3445.86	545
3444.56	562.5
3443.26	566.5
3441.95	569
3440.65	583
3439.35	602.5
3438.04	606
3436.74	614.5
3435.43	633.5
3434.13	649
3432.82	643.5
3431.52	660.5
3430.21	678.5
3428.9	691
3427.6	696
3426.29	681.5
3424.98	713
3423.67	715.5
3422.36	725.5
3421.06	743.5
3419.75	745.5
3418.44	763.5
3417.13	780
3415.82	769.5
3414.51	779.5
3413.2	793
3411.88	818.5
3410.57	826.5
3409.26	820.5
3407.95	831
3406.64	823
3405.32	819
3404.01	833.5
3402.7	857
3401.38	841.5
3400.07	856
3398.75	865.5
3397.44	884.5
3396.12	855
3394.81	889
3393.49	896
3392.18	909
3390.86	886.5
3389.54	914.5
3388.23	911.5
3386.91	927.5
3385.59	950
3384.27	935.5
3382.95	953
3381.63	951.5
3380.31	954.5
3378.99	975
3377.67	962
3376.35	1005.5
3375.03	1011.5
3373.71	1031
3372.39	1000
3371.07	1033.5
3369.75	1058.5
3368.42	1058.5
3367.1	1042.5
3365.78	1051
3364.45	1063.5
3363.13	1067
3361.81	1100.5
3360.48	1112
3359.16	1107.5
3357.83	1106
3356.51	1104
3355.18	1123.5
3353.85	1123
3352.53	1118.5
3351.2	1124.5
3349.87	1124.5
3348.54	1153.5
3347.22	1152.5
3345.89	1148
3344.56	1161.5
3343.23	1150.5
3341.9	1155
3340.57	1186.5
3339.24	1164
3337.91	1198
3336.58	1157.5
3335.25	1189.5
3333.92	1184.5
3332.58	1182
3331.25	1201
3329.92	1232
3328.59	1204.5
3327.25	1240.5
3325.92	1224.5
3324.58	1231.5
3323.25	1226
3321.92	1254
3320.58	1249
3319.25	1254.5
3317.91	1274
3316.57	1266
3315.24	1273.5
3313.9	1276
3312.56	1292.5
3311.23	1282.5
3309.89	1278
3308.55	1299
3307.21	1302
3305.87	1306
3304.53	1312
3303.19	1322
3301.85	1322.5
3300.51	1346
3299.17	1348.5
3297.83	1351
3296.49	1363.5
3295.15	1373
3293.81	1369.5
3292.46	1358.5
3291.12	1386.5
3289.78	1367.5
3288.43	1359.5
3287.09	1372.5
3285.75	1383.5
3284.4	1390
3283.06	1383.5
3281.71	1412
3280.37	1425.5
3279.02	1429
3277.67	1442
3276.33	1422
3274.98	1462
3273.63	1474.5
3272.28	1443
3270.94	1454
3269.59	1481.5
3268.24	1511.5
3266.89	1540
3265.54	1555.5
3264.19	1563.5
3262.84	1595
3261.49	1618.5
3260.14	1622.5
3258.79	1645.5
3257.44	1681
3256.08	1765.5
3254.73	1733.5
3253.38	1779.5
3252.03	1861
3250.67	1860
3249.32	1932
3247.96	1961
3246.61	1994.5
3245.26	2045
3243.9	2135
3242.54	2162
3241.19	2226.5
3239.83	2285.5
3238.48	2336.5
3237.12	2424.5
3235.76	2453
3234.41	2497
3233.05	2557
3231.69	2639
3230.33	2684.5
3228.97	2759.5
3227.61	2789
3226.25	2828.5
3224.89	2881.5
3223.53	2922.5
3222.17	2969
3220.81	2994
3219.45	3027
3218.09	3109.5
3216.72	3128.5
3215.36	3147
3214	3170.5
3212.63	3188.5
3211.27	3228.5
3209.91	3250
3208.54	3262
3207.18	3285
3205.81	3304.5
3204.45	3342
3203.08	3322.5
3201.71	3351.5
3200.35	3371
3198.98	3413
3197.61	3409
3196.25	3453.5
3194.88	3410.5
3193.51	3447.5
3192.14	3499
3190.77	3529
3189.4	3510.5
3188.03	3526.5
3186.66	3583
3185.29	3516.5
3183.92	3581.5
3182.55	3596.5
3181.18	3596.5
3179.81	3641.5
3178.44	3691.5
3177.06	3690
3175.69	3723
3174.32	3755.5
3172.94	3776
3171.57	3818.5
3170.2	3828
3168.82	3862.5
3167.45	3910.5
3166.07	3906.5
3164.69	3911.5
3163.32	3957.5
3161.94	3992.5
3160.56	3998
3159.19	4091
3157.81	4098
3156.43	4161
3155.05	4173
3153.67	4186
3152.3	4200
3150.92	4261.5
3149.54	4290
3148.16	4292.5
3146.78	4347
3145.4	4355
3144.01	4357.5
3142.63	4433.5
3141.25	4453
3139.87	4488.5
3138.49	4496.5
3137.1	4505
3135.72	4528.5
3134.34	4559.5
3132.95	4608.5
3131.57	4670.5
3130.18	4719
3128.8	4708.5
3127.41	4738.5
3126.03	4757.5
3124.64	4806
3123.25	4793.5
3121.87	4808.5
3120.48	4874
3119.09	4921.5
3117.7	4926
3116.32	4956
3114.93	5028
3113.54	4995
3112.15	5029
3110.76	5014
3109.37	5079.5
3107.98	5083
3106.59	5120.5
3105.2	5148.5
3103.8	5139
3102.41	5158
3101.02	5198.5
3099.63	5170
3098.23	5218
3096.84	5288.5
3095.45	5269
3094.05	5280.5
3092.66	5248
3091.26	5303.5
3089.87	5352.5
3088.47	5327
3087.08	5386.5
3085.68	5369
3084.28	5399
3082.89	5384
3081.49	5422.5
3080.09	5391.5
3078.69	5451.5
3077.3	5499
3075.9	5485.5
3074.5	5513
3073.1	5491.5
3071.7	5532.5
3070.3	5542
3068.9	5563.5
3067.5	5559.5
3066.09	5584
3064.69	5595
3063.29	5582.5
3061.89	5664.5
3060.48	5633.5
3059.08	5621.5
3057.68	5706.5
3056.27	5709.5
3054.87	5688.5
3053.46	5730
3052.06	5720.5
3050.65	5760
3049.25	5780
3047.84	5869
3046.44	5871.5
3045.03	5791
3043.62	5801.5
3042.21	5879
3040.81	5857.5
3039.4	5898.5
3037.99	5940.5
3036.58	5946
3035.17	5969
3033.76	5949.5
3032.35	6061
3030.94	5988.5
3029.53	6035.5
3028.12	6030.5
3026.71	6027
3025.29	6024
3023.88	6080
3022.47	6067
3021.06	6017.5
3019.64	6087.5
3018.23	6084
3016.82	6114.5
3015.4	6039
3013.99	6129.5
3012.57	6095.5
3011.15	6124.5
3009.74	6128.5
3008.32	6185.5
3006.91	6193
3005.49	6211
3004.07	6138.5
3002.65	6194
3001.24	6207.5
2999.82	6344.5
2998.4	6294.5
2996.98	6364.5
2995.56	6402
2994.14	6392
2992.72	6408
2991.3	6470
2989.88	6549.5
2988.46	6528
2987.03	6535.5
2985.61	6609
2984.19	6660
2982.77	6655.5
2981.34	6715.5
2979.92	6724
2978.49	6681
2977.07	6780.5
2975.65	6814
2974.22	6809.5
2972.79	6845.5
2971.37	6919.5
2969.94	6904
2968.52	6903.5
2967.09	6936
2965.66	6981
2964.23	7045.5
2962.81	7049
2961.38	6996.5
2959.95	7136
2958.52	7148
2957.09	7107
2955.66	7187.5
2954.23	7216
2952.8	7217.5
2951.37	7151
2949.94	7211.5
2948.5	7157.5
2947.07	7200.5
2945.64	7276.5
2944.21	7254
2942.77	7246.5
2941.34	7284
2939.91	7321
2938.47	7340
2937.04	7326
2935.6	7442
2934.17	7443.5
2932.73	7514.5
2931.29	7496
2929.86	7551.5
2928.42	7583
2926.98	7606
2925.55	7572
2924.11	7523.5
2922.67	7572.5
2921.23	7611
2919.79	7526.5
2918.35	7557.5
2916.91	7576.5
2915.47	7661
2914.03	7690.5
2912.59	7703
2911.15	7652.5
2909.71	7691.5
2908.26	7722.5
2906.82	7746.5
2905.38	7758
2903.94	7810.5
2902.49	7813.5
2901.05	7866.5
2899.6	7842
2898.16	7830
2896.71	7817.5
2895.27	7845
2893.82	7912.5
2892.38	7874
2890.93	7874
2889.48	7890
2888.03	7927
2886.59	7925.5
2885.14	7976.5
2883.69	7964.5
2882.24	7922
2880.79	7935.5
2879.34	8024.5
2877.89	7987
2876.44	8031.5
2874.99	8021.5
2873.54	7986
2872.09	7959.5
2870.64	8029
2869.18	7995.5
2867.73	8047.5
2866.28	8022
2864.83	8016.5
2863.37	8025
2861.92	7995.5
2860.46	8011
2859.01	7990
2857.55	8076
2856.1	8075
2854.64	7995
2853.19	8067
2851.73	8050.5
2850.27	8047.5
2848.81	8100
2847.36	8044.5
2845.9	8056.5
2844.44	8067.5
2842.98	8010
2841.52	7938.5
2840.06	7911.5
2838.6	7937
2837.14	7941.5
2835.68	7920
2834.22	7853
2832.76	7876
2831.3	7915.5
2829.83	7854
2828.37	7831.5
2826.91	7875
2825.44	7770
2823.98	7824
2822.52	7773
2821.05	7813
2819.59	7747
2818.12	7772
2816.66	7722.5
2815.19	7717.5
2813.72	7684
2812.26	7686
2810.79	7705.5
2809.32	7662
2807.85	7684.5
2806.38	7662
2804.92	7637.5
2803.45	7624.5
2801.98	7654.5
2800.51	7681
2799.04	7653.5
2797.57	7701.5
2796.1	7586.5
2794.62	7579
2793.15	7551.5
2791.68	7576.5
2790.21	7563
2788.73	7599
2787.26	7633.5
2785.79	7604
2784.31	7561.5
2782.84	7641
2781.36	7641.5
2779.89	7626
2778.41	7597
2776.94	7619.5
2775.46	7637
2773.99	7593.5
2772.51	7698.5
2771.03	7639.5
2769.55	7670
2768.07	7715
2766.6	7763
2765.12	7772.5
2763.64	7800.5
2762.16	7734
2760.68	7701
2759.2	7661.5
2757.72	7692
2756.24	7666.5
2754.75	7697.5
2753.27	7686
2751.79	7650
2750.31	7677
2748.82	7697.5
2747.34	7704.5
2745.86	7636.5
2744.37	7634
2742.89	7687
2741.4	7645.5
2739.92	7658.5
2738.43	7698
2736.94	7658
2735.46	7642
2733.97	7677.5
2732.48	7626.5
2731	7665.5
2729.51	7674.5
2728.02	7643.5
2726.53	7640
2725.04	7615
2723.55	7625
2722.06	7604
2720.57	7618.5
2719.08	7692
2717.59	7669.5
2716.1	7644
2714.61	7640
2713.11	7634.5
2711.62	7651
2710.13	7577.5
2708.64	7617
2707.14	7628.5
2705.65	7581.5
2704.15	7554
2702.66	7529
2701.16	7563
2699.67	7550.5
2698.17	7503.5
2696.67	7507
2695.18	7462
2693.68	7526.5
2692.18	7542.5
2690.69	7518.5
2689.19	7450
2687.69	7454
2686.19	7471.5
2684.69	7428
2683.19	7402
2681.69	7364.5
2680.19	7350
2678.69	7397
2677.19	7297.5
2675.68	7305.5
2674.18	7317.5
2672.68	7340
2671.18	7304.5
2669.67	7345
2668.17	7328
2666.66	7252
2665.16	7317
2663.66	7215.5
2662.15	7276
2660.64	7223.5
2659.14	7263.5
2657.63	7207.5
2656.13	7196.5
2654.62	7217.5
2653.11	7160.5
2651.6	7120.5
2650.09	7215.5
2648.58	7190.5
2647.08	7119.5
2645.57	7120.5
2644.06	7151.5
2642.55	7186
2641.04	7072
2639.52	7111
2638.01	7060
2636.5	7000.5
2634.99	7040
2633.48	7025.5
2631.96	6979.5
2630.45	6989
2628.94	6969.5
2627.42	6967
2625.91	6945.5
2624.39	6945
2622.88	6916.5
2621.36	6894.5
2619.85	6899.5
2618.33	6893.5
2616.81	6889.5
2615.3	6876.5
2613.78	6869
2612.26	6880
2610.74	6895.5
2609.22	6925.5
2607.7	6894.5
2606.18	6842
2604.66	6830
2603.14	6757.5
2601.62	6740
2600.1	6688
2598.58	6733.5
2597.06	6592
2595.54	6660.5
2594.01	6605
2592.49	6634
2590.97	6599
2589.44	6629.5
2587.92	6573.5
2586.39	6551
2584.87	6622.5
2583.34	6596
2581.82	6550.5
2580.29	6474
2578.76	6587
2577.24	6526.5
2575.71	6581
2574.18	6552.5
2572.65	6547.5
2571.13	6526
2569.6	6550
2568.07	6562
2566.54	6590.5
2565.01	6471.5
2563.48	6491
2561.95	6531.5
2560.42	6549
2558.88	6534.5
2557.35	6462
2555.82	6462
2554.29	6452.5
2552.75	6353
2551.22	6360
2549.69	6366.5
2548.15	6338
2546.62	6350.5
2545.08	6364
2543.55	6312
2542.01	6306.5
2540.47	6290
2538.94	6247
2537.4	6189
2535.86	6235
2534.33	6194
2532.79	6191.5
2531.25	6166
2529.71	6111
2528.17	6139
2526.63	6105
2525.09	6044.5
2523.55	6085.5
2522.01	6090.5
2520.47	6025.5
2518.92	6012.5
2517.38	6028
2515.84	5988.5
2514.3	6005
2512.75	5957.5
2511.21	6000
2509.67	5915.5
2508.12	5930.5
2506.58	5915.5
2505.03	5885.5
2503.49	5823
2501.94	5820
2500.39	5831.5
2498.85	5817.5
2497.3	5807
2495.75	5797
2494.2	5742
2492.65	5746.5
2491.11	5716.5
2489.56	5705.5
2488.01	5704
2486.46	5656
2484.91	5694
2483.36	5634
2481.8	5638.5
2480.25	5631.5
2478.7	5589
2477.15	5554
2475.6	5548.5
2474.04	5524.5
2472.49	5491
2470.93	5501.5
2469.38	5485
2467.83	5435
2466.27	5401.5
2464.71	5403
2463.16	5347.5
2461.6	5363
2460.05	5308.5
2458.49	5315.5
2456.93	5242.5
2455.37	5308
2453.81	5225.5
2452.26	5218.5
2450.7	5201
2449.14	5199.5
2447.58	5155
2446.02	5095
2444.46	5088
2442.9	5131
2441.33	5065.5
2439.77	5070.5
2438.21	5049
2436.65	5027.5
2435.08	5047.5
2433.52	5052
2431.96	5008.5
2430.39	5011
2428.83	5003.5
2427.26	5005.5
2425.7	4960.5
2424.13	4991.5
2422.56	4971
2421	4911
2419.43	4876.5
2417.86	4898.5
2416.3	4897
2414.73	4900
2413.16	4854
2411.59	4886
2410.02	4865.5
2408.45	4802
2406.88	4863.5
2405.31	4831.5
2403.74	4821
2402.17	4844.5
2400.6	4798.5
2399.02	4788.5
2397.45	4760
2395.88	4757
2394.3	4765.5
2392.73	4744.5
2391.16	4723.5
2389.58	4750
2388.01	4717.5
2386.43	4745
2384.86	4707
2383.28	4688.5
2381.7	4687.5
2380.13	4706.5
2378.55	4711.5
2376.97	4721
2375.39	4678
2373.81	4684
2372.23	4671
2370.65	4612
2369.07	4614
2367.49	4580.5
2365.91	4615.5
2364.33	4539.5
2362.75	4569
2361.17	4548.5
2359.59	4539.5
2358.01	4511.5
2356.42	4551.5
2354.84	4506
2353.25	4545.5
2351.67	4498.5
2350.09	4531
2348.5	4520.5
2346.92	4511
2345.33	4526
2343.74	4477
2342.16	4441.5
2340.57	4481.5
2338.98	4468
2337.39	4418
2335.81	4384
2334.22	4405.5
2332.63	4349
2331.04	4442
2329.45	4378.5
2327.86	4366.5
2326.27	4391.5
2324.68	4348
2323.09	4392
2321.49	4345.5
2319.9	4309
2318.31	4305
2316.72	4288.5
2315.12	4274
2313.53	4224
2311.93	4260
2310.34	4176
2308.74	4222
2307.15	4199
2305.55	4197
2303.96	4182.5
2302.36	4141
2300.76	4116.5
2299.17	4129
2297.57	4114
2295.97	4074.5
2294.37	4055
2292.77	4074
2291.17	4042
2289.57	4028.5
2287.97	4028
2286.37	4068.5
2284.77	4017
2283.17	4006.5
2281.57	4022
2279.96	3999
2278.36	4054
2276.76	3995
2275.15	3959
2273.55	3920.5
2271.95	3944
2270.34	3943
2268.74	3882
2267.13	3876.5
2265.52	3859.5
2263.92	3846.5
2262.31	3829.5
2260.7	3840
2259.1	3799.5
2257.49	3806
2255.88	3788
2254.27	3823.5
2252.66	3751
2251.05	3788.5
2249.44	3792
2247.83	3759.5
2246.22	3789
2244.61	3765.5
2243	3730.5
2241.39	3758.5
2239.77	3744
2238.16	3721
2236.55	3688.5
2234.93	3712.5
2233.32	3610.5
2231.7	3627.5
2230.09	3660
2228.47	3608
2226.86	3616.5
2225.24	3565
2223.63	3563.5
2222.01	3572.5
2220.39	3530
2218.77	3563
2217.16	3479
2215.54	3513
2213.92	3463.5
2212.3	3461
2210.68	3459
2209.06	3446
2207.44	3412
2205.82	3430.5
2204.19	3445
2202.57	3451.5
2200.95	3377
2199.33	3351
2197.7	3356.5
2196.08	3385.5
2194.46	3360.5
2192.83	3376
2191.21	3362
2189.58	3345.5
2187.96	3281
2186.33	3297
2184.7	3267.5
2183.08	3292
2181.45	3294.5
2179.82	3308.5
2178.19	3259
2176.57	3236
2174.94	3255
2173.31	3226
2171.68	3193
2170.05	3210
2168.42	3184
2166.79	3169.5
2165.16	3147.5
2163.52	3200
2161.89	3144.5
2160.26	3121.5
2158.63	3127
2156.99	3082.5
2155.36	3075.5
2153.73	3077
2152.09	3069.5
2150.46	3064
2148.82	3046
2147.18	2997.5
2145.55	3001.5
2143.91	2996.5
2142.27	3041
2140.64	2959.5
2139	2983.5
2137.36	2939.5
2135.72	2928
2134.08	2917.5
2132.44	2935
2130.8	2957
2129.16	2891.5
2127.52	2909
2125.88	2859
2124.24	2825
2122.6	2818
2120.95	2801
2119.31	2817
2117.67	2796
2116.02	2803.5
2114.38	2769
2112.74	2761.5
2111.09	2744
2109.45	2760
2107.8	2738
2106.15	2727
2104.51	2691
2102.86	2689
2101.21	2693.5
2099.56	2711.5
2097.92	2653
2096.27	2690.5
2094.62	2652
2092.97	2665.5
2091.32	2662.5
2089.67	2659
2088.02	2655.5
2086.37	2634
2084.72	2628
2083.06	2615.5
2081.41	2620.5
2079.76	2616
2078.1	2602.5
2076.45	2616.5
2074.8	2575.5
2073.14	2560.5
2071.49	2566
2069.83	2572
2068.18	2549
2066.52	2577
2064.86	2562
2063.21	2547
2061.55	2533.5
2059.89	2556
2058.23	2501
2056.57	2536
2054.92	2530.5
2053.26	2517
2051.6	2527.5
2049.94	2499.5
2048.27	2483
2046.61	2479.5
2044.95	2477
2043.29	2452
2041.63	2411.5
2039.97	2402.5
2038.3	2411
2036.64	2410
2034.97	2363.5
2033.31	2383
2031.64	2334
2029.98	2351
2028.31	2337
2026.65	2329.5
2024.98	2311.5
2023.31	2290
2021.65	2257
2019.98	2263
2018.31	2279
2016.64	2297
2014.97	2253.5
2013.3	2241.5
2011.63	2202.5
2009.96	2243
2008.29	2239
2006.62	2220.5
2004.95	2218
2003.28	2220
2001.6	2184
1999.93	2180.5
1998.26	2177.5
1996.58	2165.5
1994.91	2191.5
1993.24	2166.5
1991.56	2150.5
1989.89	2168.5
1988.21	2132
1986.53	2154.5
1984.86	2124
1983.18	2141
1981.5	2115.5
1979.82	2081.5
1978.15	2099
1976.47	2045
1974.79	2078
1973.11	2045.5
1971.43	2092.5
1969.75	2037
1968.07	2039.5
1966.38	2019.5
1964.7	2037
1963.02	2011
1961.34	2027
1959.66	1985.5
1957.97	1953.5
1956.29	1970.5
1954.6	1963
1952.92	1985
1951.23	1952.5
1949.55	1954
1947.86	1941
1946.18	1941
1944.49	1947
1942.8	1921
1941.11	1891
1939.43	1879.5
1937.74	1909
1936.05	1894
1934.36	1864
1932.67	1887.5
1930.98	1846
1929.29	1833
1927.6	1843.5
1925.91	1793.5
1924.21	1815.5
1922.52	1809
1920.83	1812.5
1919.14	1786.5
1917.44	1781.5
1915.75	1810
1914.05	1784.5
1912.36	1774
1910.66	1761
1908.97	1778.5
1907.27	1815.5
1905.58	1752
1903.88	1725.5
1902.18	1719.5
1900.48	1727
1898.79	1694
1897.09	1692
1895.39	1676
1893.69	1688.5
1891.99	1700.5
1890.29	1651.5
1888.59	1655
1886.89	1657
1885.18	1665.5
1883.48	1642
1881.78	1621
1880.08	1598.5
1878.37	1603
1876.67	1598.5
1874.96	1600
1873.26	1599.5
1871.55	1588
1869.85	1578.5
1868.14	1546
1866.44	1582
1864.73	1545
1863.02	1555
1861.32	1560.5
1859.61	1538.5
1857.9	1504.5
1856.19	1505
1854.48	1499
1852.77	1526
1851.06	1499
1849.35	1506
1847.64	1515.5
1845.93	1481
1844.21	1499
1842.5	1472
1840.79	1474
1839.08	1479.5
1837.36	1462.5
1835.65	1490.5
1833.93	1438
1832.22	1453.5
1830.5	1440
1828.79	1448.5
1827.07	1419.5
1825.36	1406
1823.64	1414
1821.92	1388
1820.2	1395
1818.48	1352
1816.77	1413
1815.05	1353
1813.33	1392
1811.61	1382
1809.89	1391.5
1808.16	1381
1806.44	1347.5
1804.72	1329
1803	1306
1801.28	1326
1799.55	1329
1797.83	1304.5
1796.11	1300
1794.38	1295
1792.66	1305.5
1790.93	1301
1789.21	1297.5
1787.48	1263.5
1785.75	1282
1784.03	1288.5
1782.3	1244
1780.57	1262.5
1778.84	1249
1777.11	1249.5
1775.38	1263.5
1773.66	1268
1771.93	1282.5
1770.19	1257
1768.46	1269.5
1766.73	1257
1765	1253.5
1763.27	1283.5
1761.54	1246
1759.8	1264.5
1758.07	1277.5
1756.34	1276
1754.6	1308.5
1752.87	1299
1751.13	1326.5
1749.4	1329.5
1747.66	1297.5
1745.92	1288
1744.19	1296.5
1742.45	1285
1740.71	1288
1738.97	1271
1737.23	1245.5
1735.49	1252.5
1733.75	1206
1732.01	1210.5
1730.27	1213.5
1728.53	1193
1726.79	1197
1725.05	1191.5
1723.31	1138.5
1721.57	1155
1719.82	1138
1718.08	1120.5
1716.34	1140
1714.59	1134
1712.85	1122.5
1711.1	1154
1709.36	1128
1707.61	1104
1705.86	1096.5
1704.12	1083
1702.37	1097.5
1700.62	1075.5
1698.87	1073.5
1697.12	1066.5
1695.37	1090.5
1693.62	1080.5
1691.87	1054.5
1690.12	1070
1688.37	1054.5
1686.62	1070.5
1684.87	1042.5
1683.12	1049.5
1681.36	1037
1679.61	1043
1677.86	1052.5
1676.1	1044
1674.35	1073.5
1672.59	1067.5
1670.84	1078.5
1669.08	1118.5
1667.33	1144.5
1665.57	1196
1663.81	1254.5
1662.06	1308.5
1660.3	1331
1658.54	1377.5
1656.78	1367.5
1655.02	1346
1653.26	1320
1651.5	1282.5
1649.74	1222
1647.98	1152.5
1646.22	1110
1644.46	1083.5
1642.7	1049
1640.93	1012.5
1639.17	1007
1637.41	998.5
1635.64	978
1633.88	979.5
1632.11	971
1630.35	963
1628.58	944.5
1626.81	940
1625.05	942
1623.28	941
1621.51	953.5
1619.75	903.5
1617.98	909.5
1616.21	912.5
1614.44	927.5
1612.67	915
1610.9	899
1609.13	906.5
1607.36	912
1605.58	895
1603.81	902.5
1602.04	902.5
1600.27	881.5
1598.49	883.5
1596.72	863
1594.95	872.5
1593.17	879
1591.4	860.5
1589.62	869
1587.84	870
1586.07	872.5
1584.29	865
1582.51	867
1580.74	846.5
1578.96	857
1577.18	859.5
1575.4	835
1573.62	845.5
1571.84	860.5
1570.06	856.5
1568.28	832.5
1566.5	828
1564.72	831.5
1562.93	816.5
1561.15	813
1559.37	813
1557.58	818.5
1555.8	815
1554.02	824
1552.23	830
1550.45	802.5
1548.66	817
1546.87	806
1545.09	810
1543.3	786.5
1541.51	797.5
1539.72	781.5
1537.94	781.5
1536.15	799
1534.36	774
1532.57	796.5
1530.78	768
1528.99	755.5
1527.2	772.5
1525.4	787.5
1523.61	759.5
1521.82	761.5
1520.03	757
1518.23	749.5
1516.44	745
1514.65	754
1512.85	769
1511.06	763
1509.26	767.5
1507.46	776.5
1505.67	776.5
1503.87	770.5
1502.07	767
1500.28	776
1498.48	771.5
1496.68	778
1494.88	784
1493.08	774
1491.28	772.5
1489.48	805
1487.68	816.5
1485.88	841
1484.08	848.5
1482.27	846
1480.47	849.5
1478.67	889.5
1476.86	891.5
1475.06	945.5
1473.25	959.5
1471.45	997
1469.64	1074
1467.84	1116
1466.03	1137
1464.23	1202.5
1462.42	1263
1460.61	1292.5
1458.8	1329
1456.99	1402
1455.18	1383.5
1453.37	1414.5
1451.56	1439
1449.75	1499
1447.94	1562
1446.13	1567.5
1444.32	1609
1442.51	1642.5
1440.7	1623
1438.88	1613
1437.07	1518.5
1435.26	1428.5
1433.44	1306.5
1431.63	1202.5
1429.81	1080.5
1427.99	1015
1426.18	955
1424.36	905
1422.54	881.5
1420.73	873
1418.91	830.5
1417.09	807.5
1415.27	782.5
1413.45	772
1411.63	751.5
1409.81	736
1407.99	727.5
1406.17	728.5
1404.35	712
1402.53	714
1400.7	707.5
1398.88	710.5
1397.06	690
1395.23	671
1393.41	679
1391.58	670.5
1389.76	655.5
1387.93	661
1386.11	664
1384.28	671
1382.45	672
1380.62	681.5
1378.8	679
1376.97	687
1375.14	680
1373.31	675.5
1371.48	688
1369.65	702
1367.82	680
1365.99	706
1364.16	696
1362.32	684.5
1360.49	682
1358.66	666.5
1356.82	694.5
1354.99	692
1353.16	685
1351.32	685.5
1349.48	667.5
1347.65	684
1345.81	654.5
1343.98	693
1342.14	678
1340.3	688.5
1338.46	685
1336.62	706.5
1334.79	700.5
1332.95	714.5
1331.11	705.5
1329.27	759.5
1327.42	758
1325.58	779.5
1323.74	811.5
1321.9	843.5
1320.06	869.5
1318.21	901.5
1316.37	948
1314.53	983.5
1312.68	1032
1310.84	1072
1308.99	1133
1307.15	1166
1305.3	1210.5
1303.45	1246
1301.61	1254.5
1299.76	1253
1297.91	1214
1296.06	1116.5
1294.21	1060.5
1292.36	986.5
1290.51	962
1288.66	909.5
1286.81	889
1284.96	880
1283.11	897
1281.26	894
1279.4	894
1277.55	885
1275.7	913
1273.84	900
1271.99	912.5
1270.13	933
1268.28	936
1266.42	911.5
1264.56	904
1262.71	878
1260.85	887
1258.99	856
1257.13	841
1255.27	814
1253.41	798.5
1251.56	780.5
1249.7	726.5
1247.83	723
1245.97	701.5
1244.11	689
1242.25	678
1240.39	654.5
1238.52	662.5
1236.66	655
1234.8	626
1232.93	628
1231.07	615
1229.2	615
1227.34	597.5
1225.47	593
1223.6	563.5
1221.74	593
1219.87	565
1218	568
1216.13	582.5
1214.26	559
1212.39	563.5
1210.53	573
1208.65	569
1206.78	558.5
1204.91	563.5
1203.04	542.5
1201.17	557
1199.3	518.5
1197.42	546
1195.55	571.5
1193.68	554.5
1191.8	534
1189.93	550
1188.05	540.5
1186.17	538.5
1184.3	559
1182.42	554.5
1180.54	554
1178.67	555
1176.79	542.5
1174.91	553
1173.03	544.5
1171.15	546
1169.27	549.5
1167.39	531.5
1165.51	544
1163.63	541.5
1161.75	540.5
1159.86	524.5
1157.98	537
1156.1	529
1154.21	545.5
1152.33	559
1150.44	566
1148.56	560.5
1146.67	558.5
1144.79	562.5
1142.9	569.5
1141.01	557.5
1139.12	580
1137.24	584
1135.35	605
1133.46	628.5
1131.57	656.5
1129.68	683.5
1127.79	680.5
1125.9	700
1124.01	686.5
1122.12	709.5
1120.22	681
1118.33	667
1116.44	660
1114.54	684.5
1112.65	661
1110.75	662
1108.86	664.5
1106.96	690
1105.07	717
1103.17	724.5
1101.27	749.5
1099.38	774.5
1097.48	809.5
1095.58	824
1093.68	839
1091.78	863.5
1089.88	891
1087.98	906
1086.08	899.5
1084.18	948.5
1082.28	935.5
1080.38	937.5
1078.47	924
1076.57	922
1074.67	901
1072.76	882
1070.86	879.5
1068.95	897
1067.05	903.5
1065.14	913
1063.24	915
1061.33	864.5
1059.42	825
1057.51	774
1055.6	759
1053.7	720.5
1051.79	719.5
1049.88	720
1047.97	706.5
1046.06	692
1044.14	695
1042.23	691.5
1040.32	700
1038.41	681.5
1036.5	701
1034.58	685
1032.67	678
1030.75	673.5
1028.84	679
1026.92	679
1025.01	684.5
1023.09	681
1021.17	691
1019.26	683
1017.34	684.5
1015.42	677.5
1013.5	684.5
1011.58	652.5
1009.66	637
1007.74	652.5
1005.82	633
1003.9	640.5
1001.98	635.5
1000.06	646
998.134	623
996.212	641
994.288	645.5
992.364	670.5
990.44	651
988.515	684
986.589	687.5
984.663	708.5
982.737	723.5
980.81	747
978.883	796.5
976.955	786.5
975.027	791
973.098	828
971.169	801
969.239	795
967.308	787.5
965.378	801.5
963.447	759
961.516	783.5
959.583	772
957.65	796.5
955.718	802.5
953.784	799.5
951.85	813.5
949.916	811
947.981	826
946.045	822
944.109	841
942.173	840.5
940.236	852.5
938.298	845
936.36	834.5
934.422	821
932.484	812
930.544	773.5
928.604	771
926.664	757
924.724	742.5
922.782	735
920.84	740.5
918.898	727.5
916.955	747
915.012	726.5
913.068	744
911.124	744
909.18	752.5
907.235	758
905.289	759
903.343	757.5
901.397	771.5
899.45	774.5
897.502	793
895.554	804
893.605	830.5
891.657	852.5
889.707	875.5
887.758	851.5
885.807	841.5
883.856	854.5
881.905	852
879.953	831
878.001	878.5
876.048	883.5
874.094	882
872.14	882
870.186	897.5
868.232	883.5
866.276	896.5
864.321	879
862.365	865
860.408	874
858.451	854.5
856.493	849
854.535	852
852.576	829.5
850.617	839.5
848.658	826.5
846.698	854.5
844.737	848.5
842.776	822.5
840.814	812.5
838.852	820
836.89	766
834.927	780.5
832.963	755.5
830.999	734.5
829.035	725.5
827.07	698.5
825.105	677
823.139	658
821.172	661.5
819.206	668.5
817.238	662
815.27	643
813.301	634.5
811.333	622.5
809.363	610.5
807.394	596.5
805.424	597
803.453	589
801.482	546
799.509	533
797.538	530.5
795.565	536.5
793.592	541
791.618	528.5
789.643	513.5
787.669	501.5
785.693	521
783.718	519
781.742	517.5
779.765	514.5
777.788	530
775.811	505
773.832	533
771.853	528.5
769.875	518
767.895	525.5
765.915	507
763.934	540
761.953	514.5
759.972	490
757.99	480.5
756.007	503.5
754.024	507.5
752.041	494
750.056	507
748.072	517
746.087	512.5
744.102	507
742.116	511.5
740.13	537
738.143	510.5
736.155	524.5
734.167	528
732.179	530
730.19	547.5
728.2	546.5
726.21	551.5
724.22	558
722.229	532.5
720.237	528
718.246	530.5
716.253	514.5
714.26	508
712.267	513.5
710.273	494.5
708.279	496
706.284	480
704.289	496
702.293	491.5
700.296	467
698.3	478.5
696.303	482.5
694.305	484.5
692.307	488.5
690.307	487
688.308	496.5
686.309	499
684.308	501
682.308	482
680.306	493
678.304	510
676.302	485.5
674.3	512.5
672.296	493
670.293	510
668.289	495.5
666.284	500.5
664.278	490.5
662.273	512.5
660.266	487
658.26	500
656.252	489
654.244	515.5
652.237	516.5
650.227	502.5
648.218	515.5
646.209	492.5
644.198	510.5
642.188	533
640.177	514
638.165	533
636.153	520
634.14	532.5
632.128	520
630.113	542.5
628.099	571
626.085	539.5
624.07	552.5
622.054	540.5
620.038	549.5
618.021	550.5
616.004	557
613.986	552
611.968	582
609.949	568.5
607.93	587.5
605.911	575.5
603.891	562
601.87	597
599.848	571.5
597.827	566
595.805	564
593.782	558
591.759	557.5
589.735	584.5
587.711	543.5
585.687	577.5
583.661	554.5
581.636	559
579.609	564.5
577.583	560
575.555	526.5
573.527	558.5
571.5	541.5
569.471	552
567.441	539.5
565.412	565
563.382	573.5
561.351	584
559.32	574
557.289	592
555.257	576
553.223	586
551.19	598.5
549.157	622.5
547.122	639.5
545.088	656
543.053	696.5
541.017	683
538.981	777
536.943	840
534.907	942.5
532.869	1117
530.831	1455.5
528.792	1989.5
526.752	2865.5
524.713	4144.5
522.673	5160.5
520.632	5221
518.591	4369
516.549	3297
514.507	2300
512.464	1680.5
510.42	1247
508.377	1028.5
506.332	888
504.288	809
502.242	756.5
500.196	751
498.15	722
496.104	735
494.056	728
492.008	685
489.96	705
487.911	692.5
485.862	689.5
483.812	690
481.761	686.5
479.71	707.5
477.659	669
475.607	680.5
473.555	674.5
471.502	651
469.448	676
467.395	671
465.34	653.5
463.285	686
461.23	663.5
459.174	662.5
457.118	669
455.061	667
453.003	664
450.945	695.5
448.887	673
446.828	681
444.768	685.5
442.708	722.5
440.647	698.5
438.587	704.5
436.525	725.5
434.463	746
432.4	742.5
430.337	715.5
428.274	721
426.21	725
424.145	734
422.079	742.5
420.014	751.5
417.948	732.5
415.882	734.5
413.814	745
411.746	760.5
409.679	756.5
407.609	758.5
405.54	739.5
403.47	764
401.401	772.5
399.329	749
397.258	768.5
395.187	767
393.114	753
391.041	761.5
388.968	765
386.895	786.5
384.82	754
382.745	791.5
380.67	783
378.594	798
376.517	807
374.44	796.5
372.363	811
370.286	800.5
368.207	803.5
366.128	821
364.049	812.5
361.969	792
359.888	827
357.807	811.5
355.725	823
353.643	827.5
351.561	838
349.477	831
347.394	825.5
345.31	843
343.226	854
341.141	833
339.055	870.5
336.968	877
334.882	872
332.795	877
330.707	883
328.618	874
326.53	930.5
324.44	942.5
322.351	940
320.26	960
318.17	976
316.078	1001.5
313.987	1029.5
311.895	1055.5
309.802	1061
307.708	1103.5
305.614	1100
303.52	1118
301.425	1082
299.329	1082
297.233	1095.5
295.137	1064
293.039	1059.5
290.942	1030
288.844	1063.5
286.745	1071
284.647	1083.5
282.546	1066.5
280.446	1086.5
278.346	1072.5
276.245	1072.5
274.143	1088.5
272.041	1059
269.939	1083
267.835	1100.5
265.731	1103.5
263.627	1107.5
261.522	1134.5
259.417	1143
257.311	1136
255.204	1180
253.098	1159.5
250.99	1160.5
248.882	1219.5
246.774	1177.5
244.664	1227.5
242.555	1206.5
240.445	1208
238.334	1263.5
236.223	1282.5
234.112	1276
232	1294
229.888	1293.5
227.775	1320
225.661	1309.5
223.546	1330
221.431	1343.5
219.316	1338
217.201	1344.5
215.084	1371
212.967	1360
210.85	1378
208.732	1377
206.614	1371
204.495	1360.5
202.375	1356
200.256	1345.5
198.135	1358
196.014	1359.5
193.893	1364
191.771	1360.5
189.648	1353.5
187.525	1353
185.401	1357
183.277	1384
181.152	1354
179.027	1355
176.901	1344
174.775	1356.5
172.648	1375
170.521	1388
168.393	1419.5
166.265	1428
164.136	1424
162.007	1452
159.876	1484.5
157.746	1488.5
155.615	1524.5
153.483	1539.5
151.351	1556.5
149.219	1571.5
147.086	1636.5
144.952	1688.5
142.818	1711
140.684	1749.5
138.548	1779.5
136.413	1836
134.276	1883.5
132.139	1945.5
130.002	1951.5
127.864	2041.5
125.725	2097.5
123.587	2137.5
121.447	2218
119.307	2285.5
117.166	2356.5
115.026	2435.5
112.885	2514.5
110.743	2572
108.6	2643.5
106.456	2664
104.313	2706
102.169	2644.5
100.023	2574.5
97.8789	2406.5
95.7328	2176.5
93.5869	1931.5
91.4392	1659
89.2919	1381.5
87.1447	1110.5
84.9959	851
