3528.51	-2
3527.23	-12.5
3525.95	39
3524.67	-16
3523.39	-12
3522.1	1.5
3520.82	-9
3519.54	0
3518.26	8.5
3516.97	14
3515.69	-19
3514.4	-21
3513.12	1
3511.84	-15
3510.55	-3
3509.26	5
3507.98	1.5
3506.69	-20
3505.41	-18
3504.12	6.5
3502.83	-10
3501.54	-27
3500.26	-12
3498.97	11.5
3497.68	4.5
3496.39	5
3495.1	-19.5
3493.81	6.5
3492.52	-22
3491.23	-7.5
3489.94	6
3488.65	4
3487.36	-5
3486.07	-9.5
3484.78	-2
3483.49	10
3482.19	-2
3480.9	4.5
3479.61	-24
3478.31	-13.5
3477.02	5
3475.73	-12.5
3474.43	-3.5
3473.14	8.5
3471.84	-17
3470.54	-15
3469.25	12
3467.95	14
3466.66	-24.5
3465.36	-4
3464.06	-16
3462.76	-8
3461.46	-28.5
3460.17	-19.5
3458.87	2
3457.57	-17
3456.27	0
3454.97	-15
3453.67	-16
3452.37	6.5
3451.07	-1
3449.77	-27
3448.47	-21
3447.16	-1.5
3445.86	-23
3444.56	12
3443.26	21.5
3441.95	13
3440.65	5.5
3439.35	10
3438.04	-35
3436.74	4
3435.43	-41
3434.13	-15.5
3432.82	5
3431.52	-6
3430.21	-2
3428.9	-6
3427.6	-31
3426.29	5
3424.98	-6
3423.67	-6
3422.36	-5
3421.06	-15
3419.75	-3.5
3418.44	-19.5
3417.13	-7.5
3415.82	-16
3414.51	3
3413.2	-17.5
3411.88	1
3410.57	-6
3409.26	-30.5
3407.95	10
3406.64	-13.5
3405.32	26
3404.01	-10
3402.7	18
3401.38	7
3400.07	3
3398.75	3
3397.44	-27
3396.12	-21
3394.81	-9
3393.49	-11
3392.18	-4.5
3390.86	8
3389.54	-21
3388.23	-9
3386.91	6
3385.59	16
3384.27	-7
3382.95	2.5
3381.63	15
3380.31	11.5
3378.99	-18.5
3377.67	-21
3376.35	-20
3375.03	1
3373.71	-2.5
3372.39	-3
3371.07	-20
3369.75	13
3368.42	-11
3367.1	-6
3365.78	3.5
3364.45	0
3363.13	-1.5
3361.81	-8.5
3360.48	-26
3359.16	-4.5
3357.83	-9.5
3356.51	10
3355.18	-10
3353.85	27.5
3352.53	-17.5
3351.2	17
3349.87	4.5
3348.54	-13
3347.22	11
3345.89	-24
3344.56	-15.5
3343.23	2.5
3341.9	-4
3340.57	-11
3339.24	5
3337.91	10.5
3336.58	11.5
3335.25	-20.5
3333.92	1
3332.58	6
3331.25	7.5
3329.92	14
3328.59	3
3327.25	10.5
3325.92	2
3324.58	-9
3323.25	-1
3321.92	-5.5
3320.58	-35
3319.25	-3
3317.91	1
3316.57	-14
3315.24	5
3313.9	-0.5
3312.56	17
3311.23	0
3309.89	3
3308.55	0.5
3307.21	-1.5
3305.87	9
3304.53	7
3303.19	-29
3301.85	6
3300.51	-15
3299.17	5.5
3297.83	5
3296.49	9
3295.15	-26
3293.81	12
3292.46	-9
3291.12	-10
3289.78	-10
3288.43	-2.5
3287.09	-15
3285.75	-7
3284.4	8.5
3283.06	-1
3281.71	-8
3280.37	-4
3279.02	-3
3277.67	-4
3276.33	8
3274.98	-8
3273.63	4
3272.28	-7
3270.94	-1.5
3269.59	-1.5
3268.24	-27
3266.89	11.5
3265.54	5.5
3264.19	-21
3262.84	14.5
3261.49	8
3260.14	11
3258.79	-12
3257.44	18
3256.08	-2
3254.73	-2
3253.38	-2
3252.03	-12
3250.67	-8
3249.32	15.5
3247.96	-9.5
3246.61	-29
3245.26	10
3243.9	-10.5
3242.54	-23
3241.19	-8.5
3239.83	-9.5
3238.48	6
3237.12	-25.5
3235.76	-4
3234.41	-14.5
3233.05	-1.5
3231.69	12
3230.33	-10.5
3228.97	17.5
3227.61	-3
3226.25	18
3224.89	-18.5
3223.53	11
3222.17	-12.5
3220.81	-14
3219.45	9
3218.09	28.5
3216.72	-1
3215.36	-1
3214	-18
3212.63	24
3211.27	1.5
3209.91	5
3208.54	1
3207.18	10.5
3205.81	3.5
3204.45	-5
3203.08	26.5
3201.71	-1
3200.35	-16
3198.98	-21.5
3197.61	-2
3196.25	5
3194.88	-14
3193.51	16.5
3192.14	2
3190.77	-2.5
3189.4	24.5
3188.03	-1
3186.66	-25.5
3185.29	1.5
3183.92	8
3182.55	16
3181.18	-11
3179.81	-6
3178.44	3
3177.06	7.5
3175.69	-11.5
3174.32	7
3172.94	3
3171.57	4.5
3170.2	1.5
3168.82	0
3167.45	3
3166.07	15.5
3164.69	-6.5
3163.32	14
3161.94	4
3160.56	10
3159.19	23.5
3157.81	14.5
3156.43	1
3155.05	26.5
3153.67	4
3152.3	-10
3150.92	11
3149.54	2.5
3148.16	22
3146.78	-25
3145.4	10.5
3144.01	9.5
3142.63	5
3141.25	-5
3139.87	1
3138.49	16
3137.1	0
3135.72	17
3134.34	16
3132.95	-6
3131.57	1
3130.18	-2
3128.8	30
3127.41	-15
3126.03	27
3124.64	0
3123.25	28
3121.87	8.5
3120.48	-7.5
3119.09	-1
3117.7	7.5
3116.32	-16
3114.93	20
3113.54	15
3112.15	17
3110.76	6.5
3109.37	20
3107.98	11
3106.59	19.5
3105.2	8
3103.8	-3.5
3102.41	17
3101.02	10.5
3099.63	-12
3098.23	3
3096.84	18
3095.45	18.5
3094.05	11.5
3092.66	-10
3091.26	8
3089.87	17
3088.47	5
3087.08	26
3085.68	19
3084.28	6
3082.89	13
3081.49	18
3080.09	7.5
3078.69	-9
3077.3	17.5
3075.9	48
3074.5	-4
3073.1	0
3071.7	23
3070.3	32
3068.9	5.5
3067.5	10
3066.09	26
3064.69	7.5
3063.29	26
3061.89	17
3060.48	24.5
3059.08	3
3057.68	8
3056.27	32.5
3054.87	15.5
3053.46	16
3052.06	32
3050.65	26
3049.25	20.5
3047.84	20
3046.44	-4
3045.03	49.5
3043.62	21.5
3042.21	37
3040.81	6
3039.4	34
3037.99	32
3036.58	32.5
3035.17	22
3033.76	55.5
3032.35	40
3030.94	34
3029.53	24
3028.12	57
3026.71	52
3025.29	30
3023.88	65
3022.47	44.5
3021.06	67
3019.64	61.5
3018.23	41
3016.82	54
3015.4	98
3013.99	61
3012.57	73
3011.15	67
3009.74	97
3008.32	71
3006.91	65
3005.49	67
3004.07	74.5
3002.65	93
3001.24	90
2999.82	84
2998.4	72.5
2996.98	99
2995.56	74
2994.14	102
2992.72	74
2991.3	81.5
2989.88	93
2988.46	57
2987.03	84
2985.61	90.5
2984.19	80
2982.77	97
2981.34	114
2979.92	97.5
2978.49	80.5
2977.07	88
2975.65	128
2974.22	131
2972.79	107
2971.37	136.5
2969.94	108
2968.52	126
2967.09	172
2965.66	162
2964.23	160.5
2962.81	160.5
2961.38	159.5
2959.95	178
2958.52	183
2957.09	185
2955.66	209
2954.23	218
2952.8	182.5
2951.37	218
2949.94	236.5
2948.5	223.5
2947.07	235
2945.64	273
2944.21	265
2942.77	312
2941.34	309.5
2939.91	272
2938.47	328.5
2937.04	316.5
2935.6	320
2934.17	364
2932.73	382
2931.29	363
2929.86	414
2928.42	384
2926.98	412
2925.55	400
2924.11	413
2922.67	451
2921.23	449
2919.79	442.5
2918.35	449.5
2916.91	486
2915.47	454
2914.03	467
2912.59	460
2911.15	486.5
2909.71	498
2908.26	471
2906.82	499
2905.38	486
2903.94	528
2902.49	526
2901.05	507
2899.6	493
2898.16	513.5
2896.71	521.5
2895.27	553
2893.82	527
2892.38	529
2890.93	545.5
2889.48	543
2888.03	535
2886.59	505.5
2885.14	546
2883.69	506
2882.24	532.5
2880.79	524
2879.34	527.5
2877.89	517
2876.44	525
2874.99	506
2873.54	528
2872.09	536.5
2870.64	494
2869.18	494.5
2867.73	517
2866.28	508
2864.83	505
2863.37	551
2861.92	527.5
2860.46	523
2859.01	533
2857.55	521
2856.1	556
2854.64	527.5
2853.19	535
2851.73	548
2850.27	510
2848.81	524
2847.36	497
2845.9	511.5
2844.44	450.5
2842.98	415
2841.52	411
2840.06	350.5
2838.6	355.5
2837.14	315
2835.68	286
2834.22	272
2832.76	230
2831.3	193
2829.83	228
2828.37	215
2826.91	215.5
2825.44	185
2823.98	161
2822.52	164
2821.05	125
2819.59	162
2818.12	148
2816.66	118
2815.19	102.5
2813.72	133
2812.26	121
2810.79	139.5
2809.32	97.5
2807.85	111
2806.38	107.5
2804.92	80
2803.45	88
2801.98	70
2800.51	92.5
2799.04	97
2797.57	88
2796.1	73.5
2794.62	96
2793.15	63
2791.68	93
2790.21	90
2788.73	85
2787.26	58
2785.79	89
2784.31	83
2782.84	47
2781.36	70.5
2779.89	75.5
2778.41	70
2776.94	37
2775.46	50
2773.99	76
2772.51	61
2771.03	27
2769.55	59
2768.07	77
2766.6	47
2765.12	76
2763.64	65
2762.16	82
2760.68	65
2759.2	53.5
2757.72	51
2756.24	58
2754.75	53
2753.27	65
2751.79	66.5
2750.31	77
2748.82	82
2747.34	64
2745.86	89
2744.37	64.5
2742.89	57
2741.4	103.5
2739.92	52
2738.43	59.5
2736.94	86
2735.46	94
2733.97	83
2732.48	99
2731	101.5
2729.51	99.5
2728.02	97
2726.53	92
2725.04	106
2723.55	99
2722.06	79
2720.57	114
2719.08	106
2717.59	82
2716.1	72
2714.61	101
2713.11	102.5
2711.62	87
2710.13	97
2708.64	98
2707.14	83
2705.65	84
2704.15	95
2702.66	60
2701.16	86
2699.67	87
2698.17	98
2696.67	63
2695.18	76
2693.68	68
2692.18	86
2690.69	85.5
2689.19	80.5
2687.69	76
2686.19	103.5
2684.69	63.5
2683.19	91
2681.69	89
2680.19	70
2678.69	88.5
2677.19	83.5
2675.68	81
2674.18	76
2672.68	97
2671.18	77
2669.67	96.5
2668.17	81
2666.66	70.5
2665.16	78
2663.66	59
2662.15	86.5
2660.64	72.5
2659.14	83
2657.63	79.5
2656.13	93
2654.62	80
2653.11	73
2651.6	84
2650.09	80.5
2648.58	81
2647.08	83.5
2645.57	69
2644.06	59
2642.55	52
2641.04	94
2639.52	59
2638.01	41
2636.5	85
2634.99	75
2633.48	59
2631.96	91
2630.45	69
2628.94	55
2627.42	93.5
2625.91	78.5
2624.39	68.5
2622.88	69.5
2621.36	37
2619.85	91.5
2618.33	58.5
2616.81	65
2615.3	66
2613.78	76
2612.26	58
2610.74	88
2609.22	74
2607.7	65
2606.18	88
2604.66	65
2603.14	83
2601.62	94
2600.1	42.5
2598.58	110
2597.06	46
2595.54	72
2594.01	76.5
2592.49	32
2590.97	95
2589.44	65
2587.92	65.5
2586.39	52
2584.87	52
2583.34	64
2581.82	72
2580.29	98.5
2578.76	66
2577.24	74
2575.71	97.5
2574.18	78
2572.65	74
2571.13	75
2569.6	43
2568.07	71
2566.54	87
2565.01	74
2563.48	60.5
2561.95	93
2560.42	71
2558.88	81.5
2557.35	72
2555.82	86.5
2554.29	44
2552.75	55
2551.22	76
2549.69	70.5
2548.15	62.5
2546.62	60
2545.08	70
2543.55	75.5
2542.01	78
2540.47	44
2538.94	70
2537.4	69
2535.86	58.5
2534.33	79
2532.79	69
2531.25	65
2529.71	70.5
2528.17	92.5
2526.63	69
2525.09	73
2523.55	48.5
2522.01	58
2520.47	78
2518.92	70
2517.38	75
2515.84	64
2514.3	79.5
2512.75	44
2511.21	74
2509.67	57
2508.12	82
2506.58	70
2505.03	84.5
2503.49	60
2501.94	47
2500.39	72
2498.85	44.5
2497.3	95.5
2495.75	67.5
2494.2	69
2492.65	92.5
2491.11	81.5
2489.56	74
2488.01	41
2486.46	80
2484.91	91
2483.36	59
2481.8	63
2480.25	74
2478.7	71
2477.15	100
2475.6	55
2474.04	81.5
2472.49	83.5
2470.93	66
2469.38	69.5
2467.83	45
2466.27	82.5
2464.71	80
2463.16	65
2461.6	67
2460.05	64
2458.49	63
2456.93	96
2455.37	77
2453.81	57
2452.26	87.5
2450.7	49
2449.14	68
2447.58	56
2446.02	72
2444.46	98
2442.9	104
2441.33	58
2439.77	74.5
2438.21	75.5
2436.65	83
2435.08	87
2433.52	93
2431.96	97.5
2430.39	57
2428.83	74
2427.26	77.5
2425.7	84.5
2424.13	67.5
2422.56	69
2421	65
2419.43	63
2417.86	57.5
2416.3	97.5
2414.73	79
2413.16	47
2411.59	90.5
2410.02	86
2408.45	63.5
2406.88	82
2405.31	75
2403.74	67
2402.17	88.5
2400.6	58
2399.02	78.5
2397.45	58
2395.88	100
2394.3	99.5
2392.73	77
2391.16	91.5
2389.58	89
2388.01	77
2386.43	91
2384.86	98
2383.28	89
2381.7	89
2380.13	94
2378.55	64
2376.97	92
2375.39	69
2373.81	103.5
2372.23	67
2370.65	89
2369.07	78.5
2367.49	82
2365.91	73
2364.33	80.5
2362.75	87.5
2361.17	100
2359.59	65.5
2358.01	63
2356.42	100
2354.84	60
2353.25	84
2351.67	76
2350.09	101
2348.5	66
2346.92	83.5
2345.33	103
2343.74	80
2342.16	80
2340.57	98.5
2338.98	84
2337.39	90
2335.81	93
2334.22	98
2332.63	115.5
2331.04	132.5
2329.45	123
2327.86	110.5
2326.27	99.5
2324.68	114
2323.09	126
2321.49	122.5
2319.9	112
2318.31	109
2316.72	113
2315.12	85
2313.53	85.5
2311.93	100
2310.34	109
2308.74	90
2307.15	96
2305.55	101
2303.96	109.5
2302.36	107.5
2300.76	113
2299.17	66
2297.57	108
2295.97	100
2294.37	119
2292.77	124.5
2291.17	107
2289.57	91
2287.97	91
2286.37	99
2284.77	98
2283.17	99
2281.57	76
2279.96	89
2278.36	84.5
2276.76	77
2275.15	103
2273.55	116
2271.95	89.5
2270.34	116
2268.74	110
2267.13	89
2265.52	84
2263.92	106
2262.31	117.5
2260.7	113
2259.1	119
2257.49	111.5
2255.88	111
2254.27	110
2252.66	128.5
2251.05	134
2249.44	107
2247.83	127
2246.22	116
2244.61	123.5
2243	99.5
2241.39	107
2239.77	107
2238.16	108
2236.55	101
2234.93	84
2233.32	110
2231.7	115.5
2230.09	108
2228.47	92
2226.86	106
2225.24	127
2223.63	113
2222.01	98
2220.39	122
2218.77	142
2217.16	84
2215.54	107.5
2213.92	121
2212.3	137
2210.68	102
2209.06	120
2207.44	98.5
2205.82	121
2204.19	118
2202.57	116.5
2200.95	100
2199.33	139
2197.7	119
2196.08	136
2194.46	104
2192.83	118
2191.21	104
2189.58	111
2187.96	129.5
2186.33	122
2184.7	95
2183.08	134
2181.45	162
2179.82	148
2178.19	113.5
2176.57	139
2174.94	120.5
2173.31	129
2171.68	98
2170.05	144
2168.42	118
2166.79	129
2165.16	119
2163.52	103
2161.89	122
2160.26	141
2158.63	125
2156.99	93
2155.36	131.5
2153.73	149
2152.09	125
2150.46	139
2148.82	142
2147.18	127
2145.55	128
2143.91	144.5
2142.27	123.5
2140.64	125
2139	131
2137.36	125
2135.72	101
2134.08	137
2132.44	145
2130.8	140
2129.16	123
2127.52	131.5
2125.88	148
2124.24	124
2122.6	146
2120.95	149
2119.31	112
2117.67	112
2116.02	138
2114.38	141.5
2112.74	129
2111.09	116
2109.45	160.5
2107.8	129
2106.15	149
2104.51	101
2102.86	134
2101.21	160.5
2099.56	136
2097.92	161
2096.27	147.5
2094.62	136
2092.97	134
2091.32	164
2089.67	159.5
2088.02	137
2086.37	137
2084.72	120
2083.06	136
2081.41	122
2079.76	138
2078.1	131.5
2076.45	137
2074.8	130
2073.14	143
2071.49	145.5
2069.83	113
2068.18	123
2066.52	143
2064.86	156
2063.21	147.5
2061.55	126
2059.89	137.5
2058.23	155
2056.57	138
2054.92	186.5
2053.26	101
2051.6	159
2049.94	163
2048.27	135
2046.61	153
2044.95	159
2043.29	152
2041.63	160
2039.97	107
2038.3	182.5
2036.64	138
2034.97	173
2033.31	146
2031.64	146
2029.98	162
2028.31	135
2026.65	126
2024.98	143
2023.31	167
2021.65	130
2019.98	156
2018.31	161
2016.64	124
2014.97	147
2013.3	145
2011.63	152
2009.96	166
2008.29	170
2006.62	185
2004.95	177
2003.28	176
2001.6	159
1999.93	159
1998.26	130
1996.58	186.5
1994.91	152
1993.24	168
1991.56	158
1989.89	160
1988.21	168
1986.53	138
1984.86	166.5
1983.18	147
1981.5	138
1979.82	170
1978.15	159
1976.47	164
1974.79	200
1973.11	149
1971.43	184.5
1969.75	189
1968.07	146
1966.38	164.5
1964.7	168
1963.02	161
1961.34	184.5
1959.66	167
1957.97	203
1956.29	182
1954.6	174
1952.92	148
1951.23	188.5
1949.55	191.5
1947.86	184
1946.18	171
1944.49	164
1942.8	178
1941.11	193
1939.43	203.5
1937.74	146
1936.05	186
1934.36	218
1932.67	149
1930.98	169
1929.29	201
1927.6	193
1925.91	188.5
1924.21	186
1922.52	230
1920.83	204
1919.14	212
1917.44	173.5
1915.75	185
1914.05	160
1912.36	194
1910.66	192
1908.97	189
1907.27	192
1905.58	178
1903.88	195
1902.18	184.5
1900.48	204
1898.79	192
1897.09	161
1895.39	197
1893.69	187
1891.99	210
1890.29	180
1888.59	204
1886.89	175
1885.18	168
1883.48	200
1881.78	220.5
1880.08	190
1878.37	183
1876.67	188
1874.96	219
1873.26	193
1871.55	189
1869.85	202
1868.14	182
1866.44	218
1864.73	234
1863.02	190
1861.32	193
1859.61	223
1857.9	237
1856.19	205
1854.48	214.5
1852.77	197
1851.06	199
1849.35	228.5
1847.64	224
1845.93	196
1844.21	207
1842.5	194
1840.79	215
1839.08	215
1837.36	226
1835.65	224
1833.93	195
1832.22	207
1830.5	199
1828.79	201
1827.07	216
1825.36	200
1823.64	211
1821.92	221
1820.2	219
1818.48	186
1816.77	204
1815.05	232
1813.33	228.5
1811.61	214
1809.89	199
1808.16	202
1806.44	230.5
1804.72	239.5
1803	211
1801.28	223
1799.55	241
1797.83	198
1796.11	250.5
1794.38	220
1792.66	224.5
1790.93	214
1789.21	241
1787.48	211
1785.75	232
1784.03	244.5
1782.3	231
1780.57	215
1778.84	253
1777.11	247
1775.38	242
1773.66	234
1771.93	261.5
1770.19	242
1768.46	256.5
1766.73	247
1765	255
1763.27	285
1761.54	289
1759.8	289
1758.07	256
1756.34	293
1754.6	351
1752.87	349
1751.13	345
1749.4	352
1747.66	364
1745.92	377
1744.19	346
1742.45	353
1740.71	340
1738.97	281
1737.23	281
1735.49	327
1733.75	302
1732.01	268
1730.27	284
1728.53	298
1726.79	325
1725.05	281
1723.31	274
1721.57	256
1719.82	257
1718.08	234
1716.34	270
1714.59	249
1712.85	278
1711.1	269
1709.36	269
1707.61	267
1705.86	230
1704.12	298
1702.37	290
1700.62	278
1698.87	280
1697.12	263.5
1695.37	262
1693.62	293
1691.87	281
1690.12	295.5
1688.37	289
1686.62	303.5
1684.87	296
1683.12	307
1681.36	286
1679.61	348
1677.86	314
1676.1	314
1674.35	340
1672.59	355
1670.84	404
1669.08	431
1667.33	455
1665.57	524
1663.81	604.5
1662.06	668
1660.3	741
1658.54	761
1656.78	768
1655.02	753
1653.26	742.5
1651.5	675.5
1649.74	592
1647.98	528.5
1646.22	500
1644.46	435.5
1642.7	415
1640.93	392
1639.17	387
1637.41	376
1635.64	288
1633.88	359
1632.11	318
1630.35	307
1628.58	324
1626.81	348
1625.05	308
1623.28	305
1621.51	341
1619.75	330
1617.98	292
1616.21	312
1614.44	313
1612.67	298
1610.9	341
1609.13	298
1607.36	346.5
1605.58	296
1603.81	325
1602.04	276
1600.27	321
1598.49	331
1596.72	312
1594.95	318
1593.17	330
1591.4	305
1589.62	327
1587.84	302
1586.07	303
1584.29	349
1582.51	329
1580.74	330
1578.96	327
1577.18	329
1575.4	295
1573.62	310
1571.84	321
1570.06	339
1568.28	308
1566.5	323
1564.72	335
1562.93	338
1561.15	356
1559.37	350
1557.58	390
1555.8	361
1554.02	387
1552.23	371.5
1550.45	343
1548.66	316
1546.87	324
1545.09	350
1543.3	341
1541.51	353
1539.72	312
1537.94	356
1536.15	337
1534.36	353
1532.57	368
1530.78	340
1528.99	370
1527.2	336
1525.4	364
1523.61	330
1521.82	350
1520.03	365
1518.23	374
1516.44	378
1514.65	393
1512.85	403
1511.06	406
1509.26	375
1507.46	401
1505.67	401
1503.87	381
1502.07	423
1500.28	429.5
1498.48	421
1496.68	428
1494.88	463
1493.08	432
1491.28	417
1489.48	445
1487.68	472
1485.88	484
1484.08	508
1482.27	478
1480.47	565
1478.67	585
1476.86	560
1475.06	622
1473.25	651
1471.45	756
1469.64	794
1467.84	872
1466.03	875
1464.23	938
1462.42	974
1460.61	1057
1458.8	1128
1456.99	1155
1455.18	1223
1453.37	1265
1451.56	1301
1449.75	1338
1447.94	1312
1446.13	1369
1444.32	1431
1442.51	1502
1440.7	1501
1438.88	1518
1437.07	1426
1435.26	1305
1433.44	1145
1431.63	1056
1429.81	904
1427.99	829
1426.18	783
1424.36	716
1422.54	682
1420.73	664
1418.91	602
1417.09	589
1415.27	600
1413.45	537
1411.63	532
1409.81	541
1407.99	539
1406.17	492
1404.35	529
1402.53	526
1400.7	524
1398.88	539
1397.06	547.5
1395.23	486
1393.41	485
1391.58	506
1389.76	487
1387.93	476
1386.11	498
1384.28	508
1382.45	497
1380.62	541
1378.8	470
1376.97	529
1375.14	528
1373.31	553.5
1371.48	555
1369.65	574
1367.82	588
1365.99	532
1364.16	528
1362.32	553
1360.49	575.5
1358.66	522
1356.82	514
1354.99	554
1353.16	522
1351.32	554
1349.48	579
1347.65	577
1345.81	563
1343.98	545
1342.14	553
1340.3	568
1338.46	606
1336.62	542
1334.79	561
1332.95	585
1331.11	570
1329.27	651
1327.42	668
1325.58	685
1323.74	687
1321.9	771
1320.06	796
1318.21	834
1316.37	851
1314.53	914
1312.68	984
1310.84	1040
1308.99	1119
1307.15	1115
1305.3	1181
1303.45	1166
1301.61	1206
1299.76	1199
1297.91	1185
1296.06	1077
1294.21	1029
1292.36	953
1290.51	948
1288.66	894
1286.81	886
1284.96	867
1283.11	859.5
1281.26	884
1279.4	903
1277.55	845
1275.7	846
1273.84	922
1271.99	906
1270.13	967
1268.28	955
1266.42	1003
1264.56	921
1262.71	981
1260.85	935
1258.99	914
1257.13	911
1255.27	861
1253.41	802
1251.56	796
1249.7	779
1247.83	755
1245.97	709.5
1244.11	677
1242.25	682
1240.39	662
1238.52	662
1236.66	637
1234.8	626
1232.93	637
1231.07	647
1229.2	599
1227.34	639.5
1225.47	585
1223.6	592
1221.74	604
1219.87	582
1218	595
1216.13	578
1214.26	590
1212.39	564
1210.53	583
1208.65	542
1206.78	585
1204.91	581
1203.04	576
1201.17	572
1199.3	583
1197.42	557
1195.55	611
1193.68	552
1191.8	553
1189.93	590
1188.05	529
1186.17	566
1184.3	564
1182.42	601
1180.54	547
1178.67	573
1176.79	561
1174.91	578
1173.03	548
1171.15	583
1169.27	573
1167.39	544
1165.51	577
1163.63	580
1161.75	546
1159.86	600
1157.98	578
1156.1	607
1154.21	574
1152.33	563
1150.44	576
1148.56	641
1146.67	625
1144.79	605
1142.9	586
1141.01	634
1139.12	599
1137.24	619
1135.35	644
1133.46	667
1131.57	711
1129.68	704
1127.79	749
1125.9	740
1124.01	706
1122.12	795
1120.22	774
1118.33	789
1116.44	718
1114.54	743
1112.65	746
1110.75	789
1108.86	759
1106.96	823
1105.07	750
1103.17	813
1101.27	841
1099.38	893
1097.48	912
1095.58	923
1093.68	890
1091.78	1004
1089.88	988
1087.98	1008
1086.08	1074
1084.18	1069
1082.28	1134
1080.38	1086
1078.47	1110
1076.57	1075
1074.67	1051
1072.76	1047
1070.86	1046
1068.95	1041
1067.05	1078
1065.14	1092
1063.24	1047
1061.33	1022
1059.42	968
1057.51	911
1055.6	883
1053.7	900
1051.79	813
1049.88	804
1047.97	807
1046.06	842
1044.14	806
1042.23	821
1040.32	806
1038.41	821
1036.5	847
1034.58	763
1032.67	801
1030.75	797
1028.84	804
1026.92	770
1025.01	799
1023.09	782
1021.17	808
1019.26	776
1017.34	763
1015.42	794
1013.5	749
1011.58	796
1009.66	752
1007.74	749
1005.82	729
1003.9	739
1001.98	750
1000.06	698
998.134	748
996.212	734
994.288	726
992.364	745
990.44	745
988.515	756
986.589	703
984.663	739
982.737	744
980.81	794
978.883	778
976.955	865
975.027	869
973.098	866
971.169	847
969.239	839
967.308	814
965.378	874
963.447	833
961.516	857
959.583	825
957.65	807
955.718	819
953.784	808
951.85	820
949.916	801
947.981	831
946.045	846
944.109	842
942.173	826
940.236	860
938.298	873
936.36	827
934.422	886
932.484	871
930.544	832
928.604	846
926.664	878
924.724	864
922.782	851
920.84	854
918.898	883
916.955	889
915.012	874
913.068	956
911.124	931
909.18	939
907.235	900
905.289	957
903.343	922
901.397	943
899.45	933
897.502	926
895.554	1003
893.605	1001
891.657	1035
889.707	994
887.758	1033
885.807	1053
883.856	1009
881.905	1036
879.953	1049
878.001	1076
876.048	1055
874.094	1100
872.14	1072
870.186	1149
868.232	1054
866.276	1121
864.321	1096
862.365	1060
860.408	1047
858.451	1099.5
856.493	1022
854.535	1100
852.576	1012
850.617	1046
848.658	1011
846.698	1025
844.737	1078
842.776	1014
840.814	1027
838.852	1019
836.89	980
834.927	993
832.963	961
830.999	955
829.035	964
827.07	892
825.105	894
823.139	869
821.172	877
819.206	862
817.238	868
815.27	841
813.301	838
811.333	807
809.363	813
807.394	816
805.424	731
803.453	757
801.482	788
799.509	745
797.538	730
795.565	719
793.592	742
791.618	762
789.643	758
787.669	763
785.693	753
783.718	731
781.742	739
779.765	765
777.788	779
775.811	768
773.832	787
771.853	756
769.875	768
767.895	761
765.915	760
763.934	734
761.953	762
759.972	782
757.99	708
756.007	742
754.024	763
752.041	747
750.056	723
748.072	780
746.087	773
744.102	729
742.116	787
740.13	761
738.143	746
736.155	768
734.167	732
732.179	779
730.19	828
728.2	795
726.21	828
724.22	780
722.229	835.5
720.237	830
718.246	839.5
716.253	786
714.26	770
712.267	804
710.273	759
708.279	747
706.284	729
704.289	795
702.293	758
700.296	738
698.3	759
696.303	752
694.305	729
692.307	767
690.307	717
688.308	715
686.309	744
684.308	739
682.308	717
680.306	728
678.304	723
676.302	722
674.3	747
672.296	698
670.293	784
668.289	747
666.284	763
664.278	749
662.273	743
660.266	738
658.26	729
656.252	759
654.244	780
652.237	766
650.227	707
648.218	784
646.209	781
644.198	748
642.188	773
640.177	798
638.165	778
636.153	752
634.14	836
632.128	727
630.113	783
628.099	775
626.085	818
624.07	824
622.054	803
620.038	851
618.021	786
616.004	795
613.986	856
611.968	790
609.949	818
607.93	855
605.911	882
603.891	804
601.87	887
599.848	873
597.827	909
595.805	819
593.782	814
591.759	859
589.735	818
587.711	849
585.687	825
583.661	851
581.636	851
579.609	827
577.583	888
575.555	851
573.527	862
571.5	840
569.471	839
567.441	820
565.412	819
563.382	879
561.351	804
559.32	842
557.289	816
555.257	817
553.223	885
551.19	856
549.157	849
547.122	860
545.088	917
543.053	865
541.017	884
538.981	897
536.943	876
534.907	944
532.869	915
530.831	902
528.792	979
526.752	904
524.713	958
522.673	862
520.632	951
518.591	946
516.549	960
514.507	939
512.464	979
510.42	917
508.377	957
506.332	932
504.288	892
502.242	959
500.196	989
498.15	996
496.104	964
494.056	1002
492.008	1035
489.96	972
487.911	934
485.862	934
483.812	957
481.761	979
479.71	968
477.659	1023
475.607	1023
473.555	988
471.502	978
469.448	994
467.395	1039
465.34	1001
463.285	952
461.23	975
459.174	985
457.118	1010
455.061	993
453.003	1024
450.945	987
448.887	925
446.828	1007
444.768	1004
442.708	1028
440.647	1017
438.587	1013
436.525	1053
434.463	1050
432.4	1038
430.337	966
428.274	1016
426.21	1103
424.145	1015
422.079	1027
420.014	1001
417.948	1074
415.882	1098
413.814	1040
411.746	1038
409.679	1074
407.609	1109
405.54	1045
403.47	1082
401.401	1015
399.329	1027
397.258	1087
395.187	1058
393.114	1085
391.041	1059
388.968	1055
386.895	1019
384.82	1105
382.745	1074
380.67	1045
378.594	1071
376.517	1083
374.44	1084
372.363	1089
370.286	1075
368.207	1093
366.128	1100
364.049	1144
361.969	1125
359.888	1125
357.807	1116
355.725	1140
353.643	1142
351.561	1115
349.477	1097
347.394	1110
345.31	1104
343.226	1185
341.141	1142
339.055	1198
336.968	1201
334.882	1140
332.795	1110
330.707	1153
328.618	1179
326.53	1172
324.44	1130
322.351	1175
320.26	1187
318.17	1193
316.078	1158
313.987	1191
311.895	1156
309.802	1247
307.708	1155
305.614	1281
303.52	1211
301.425	1296
299.329	1247
297.233	1220
295.137	1288
293.039	1366
290.942	1320
288.844	1334
286.745	1356
284.647	1298
282.546	1349
280.446	1342
278.346	1385
276.245	1370
274.143	1365
272.041	1453
269.939	1399
267.835	1456
265.731	1433
263.627	1471
261.522	1458
259.417	1465
257.311	1438
255.204	1471
253.098	1488
250.99	1499
248.882	1524
246.774	1557
244.664	1564
242.555	1598
240.445	1598
238.334	1562
236.223	1533
234.112	1626
232	1629
229.888	1641
227.775	1685
225.661	1728
223.546	1695
221.431	1761
219.316	1722
217.201	1774
215.084	1758
212.967	1782
210.85	1759
208.732	1847
206.614	1767
204.495	1787
202.375	1823
200.256	1827
198.135	1779
196.014	1846
193.893	1827
191.771	1758
189.648	1865
187.525	1832
185.401	1837
183.277	1824
181.152	1829
179.027	1841
176.901	1852
174.775	1866
172.648	1910
170.521	1979
168.393	1909
166.265	1892
164.136	1931
162.007	1935
159.876	2011
157.746	1948
155.615	1994
153.483	2030
151.351	2106
149.219	2091
147.086	2234
144.952	2155
142.818	2265
140.684	2261
138.548	2357
136.413	2393
134.276	2483
132.139	2542
130.002	2588
127.864	2569
125.725	2701
123.587	2733
121.447	2897
119.307	2958
117.166	3070
115.026	3188
112.885	3219
110.743	3283
108.6	3431
106.456	3487
104.313	3562
102.169	3611
100.023	3556
97.8789	3387
95.7328	3226
93.5869	2933
91.4392	2608
89.2919	2166
87.1447	1870
84.9959	1533
