3528.51	7
3527.23	-7
3525.95	5
3524.67	29
3523.39	10
3522.1	-12
3520.82	11
3519.54	8
3518.26	4.5
3516.97	16.5
3515.69	-11
3514.4	3.5
3513.12	0
3511.84	16
3510.55	1
3509.26	-13
3507.98	15.5
3506.69	0.5
3505.41	-12
3504.12	10
3502.83	3.5
3501.54	-2
3500.26	18.5
3498.97	14.5
3497.68	24
3496.39	-4
3495.1	1
3493.81	1
3492.52	-4
3491.23	-8
3489.94	15
3488.65	1
3487.36	8
3486.07	-4
3484.78	19.5
3483.49	1
3482.19	11.5
3480.9	-3
3479.61	15
3478.31	8
3477.02	23.5
3475.73	29
3474.43	-10
3473.14	3
3471.84	7
3470.54	9
3469.25	-5
3467.95	-1.5
3466.66	-7.5
3465.36	2
3464.06	11.5
3462.76	5
3461.46	17.5
3460.17	4.5
3458.87	23.5
3457.57	2.5
3456.27	17
3454.97	-2.5
3453.67	17
3452.37	-10
3451.07	17
3449.77	-4
3448.47	22
3447.16	-3
3445.86	12
3444.56	25.5
3443.26	-3
3441.95	24
3440.65	16
3439.35	3
3438.04	14.5
3436.74	14
3435.43	2
3434.13	35
3432.82	19
3431.52	10
3430.21	19.5
3428.9	9.5
3427.6	-11
3426.29	11.5
3424.98	36.5
3423.67	-1
3422.36	28.5
3421.06	15
3419.75	17
3418.44	3
3417.13	14.5
3415.82	23
3414.51	13
3413.2	-1
3411.88	26.5
3410.57	27
3409.26	46
3407.95	-0.5
3406.64	24
3405.32	20
3404.01	10
3402.7	12
3401.38	40
3400.07	12
3398.75	15.5
3397.44	29
3396.12	21
3394.81	20
3393.49	8
3392.18	-14
3390.86	23
3389.54	11.5
3388.23	13
3386.91	18.5
3385.59	4
3384.27	24
3382.95	23
3381.63	4
3380.31	13
3378.99	44
3377.67	25.5
3376.35	12
3375.03	44
3373.71	34
3372.39	19
3371.07	10
3369.75	19.5
3368.42	17
3367.1	12.5
3365.78	46
3364.45	29
3363.13	3
3361.81	21.5
3360.48	18.5
3359.16	9
3357.83	38.5
3356.51	37
3355.18	30.5
3353.85	11
3352.53	35
3351.2	35
3349.87	25.5
3348.54	10.5
3347.22	33
3345.89	2
3344.56	44.5
3343.23	16
3341.9	46
3340.57	45
3339.24	-3
3337.91	45
3336.58	22.5
3335.25	30
3333.92	38
3332.58	10
3331.25	25.5
3329.92	33.5
3328.59	6
3327.25	33.5
3325.92	17
3324.58	14
3323.25	34.5
3321.92	33.5
3320.58	12
3319.25	35
3317.91	13.5
3316.57	42
3315.24	45
3313.9	26
3312.56	8
3311.23	18
3309.89	36.5
3308.55	27.5
3307.21	26.5
3305.87	39.5
3304.53	24
3303.19	31
3301.85	42
3300.51	2.5
3299.17	16
3297.83	1
3296.49	16
3295.15	20
3293.81	30.5
3292.46	42
3291.12	6
3289.78	42
3288.43	12.5
3287.09	41
3285.75	33
3284.4	37.5
3283.06	15.5
3281.71	51.5
3280.37	39
3279.02	35
3277.67	24.5
3276.33	37
3274.98	12
3273.63	35.5
3272.28	29
3270.94	30
3269.59	33.5
3268.24	32
3266.89	31.5
3265.54	29.5
3264.19	28.5
3262.84	38
3261.49	18
3260.14	28
3258.79	6
3257.44	15
3256.08	34.5
3254.73	38.5
3253.38	20
3252.03	42.5
3250.67	38.5
3249.32	35.5
3247.96	22
3246.61	65
3245.26	41.5
3243.9	45
3242.54	49.5
3241.19	37.5
3239.83	50.5
3238.48	64.5
3237.12	34
3235.76	31
3234.41	33
3233.05	50
3231.69	22
3230.33	43.5
3228.97	60
3227.61	45
3226.25	65
3224.89	71
3223.53	54
3222.17	54
3220.81	77
3219.45	50
3218.09	85.5
3216.72	64.5
3215.36	63
3214	89.5
3212.63	75
3211.27	67
3209.91	70
3208.54	76
3207.18	75.5
3205.81	90
3204.45	80
3203.08	52
3201.71	73
3200.35	76.5
3198.98	88
3197.61	90
3196.25	67
3194.88	63
3193.51	79.5
3192.14	73.5
3190.77	73
3189.4	81
3188.03	55.5
3186.66	76.5
3185.29	113
3183.92	58.5
3182.55	88.5
3181.18	80
3179.81	70
3178.44	83
3177.06	89.5
3175.69	92
3174.32	76
3172.94	84
3171.57	120
3170.2	83
3168.82	102
3167.45	76
3166.07	84.5
3164.69	98.5
3163.32	77
3161.94	75.5
3160.56	91
3159.19	61
3157.81	85
3156.43	101
3155.05	90
3153.67	109.5
3152.3	96
3150.92	114
3149.54	89.5
3148.16	113
3146.78	76
3145.4	120
3144.01	129
3142.63	77
3141.25	78
3139.87	101
3138.49	98
3137.1	88
3135.72	119.5
3134.34	117
3132.95	109.5
3131.57	90.5
3130.18	100.5
3128.8	102
3127.41	122
3126.03	100.5
3124.64	102
3123.25	108.5
3121.87	105
3120.48	137.5
3119.09	111
3117.7	107.5
3116.32	97
3114.93	122
3113.54	128
3112.15	93
3110.76	112
3109.37	122
3107.98	141.5
3106.59	122
3105.2	120
3103.8	107
3102.41	108
3101.02	105.5
3099.63	125
3098.23	117
3096.84	116
3095.45	110
3094.05	123
3092.66	113
3091.26	131
3089.87	128.5
3088.47	143.5
3087.08	123.5
3085.68	156.5
3084.28	132
3082.89	110
3081.49	160.5
3080.09	125
3078.69	133.5
3077.3	141
3075.9	123
3074.5	107
3073.1	138.5
3071.7	145.5
3070.3	135
3068.9	144
3067.5	130.5
3066.09	143
3064.69	123
3063.29	132
3061.89	142
3060.48	140.5
3059.08	119
3057.68	120
3056.27	118
3054.87	133
3053.46	117
3052.06	161.5
3050.65	141
3049.25	145.5
3047.84	131.5
3046.44	139.5
3045.03	161
3043.62	143.5
3042.21	138.5
3040.81	152
3039.4	126.5
3037.99	161.5
3036.58	133
3035.17	148
3033.76	165
3032.35	137
3030.94	154.5
3029.53	152
3028.12	153.5
3026.71	159
3025.29	155
3023.88	169
3022.47	175
3021.06	154
3019.64	176
3018.23	154
3016.82	158
3015.4	167.5
3013.99	166.5
3012.57	157
3011.15	174
3009.74	161
3008.32	174
3006.91	146
3005.49	142
3004.07	172.5
3002.65	185
3001.24	188
2999.82	155
2998.4	175.5
2996.98	200
2995.56	208
2994.14	179
2992.72	194.5
2991.3	198.5
2989.88	205
2988.46	197
2987.03	178
2985.61	175.5
2984.19	184.5
2982.77	201.5
2981.34	199
2979.92	194
2978.49	192.5
2977.07	203
2975.65	212
2974.22	220
2972.79	237.5
2971.37	224
2969.94	229
2968.52	236
2967.09	217.5
2965.66	218
2964.23	240.5
2962.81	260
2961.38	250
2959.95	267
2958.52	286
2957.09	273.5
2955.66	260
2954.23	279
2952.8	272.5
2951.37	275.5
2949.94	278
2948.5	300
2947.07	319
2945.64	274
2944.21	300.5
2942.77	315
2941.34	320.5
2939.91	296
2938.47	337
2937.04	341
2935.6	363.5
2934.17	341.5
2932.73	350.5
2931.29	360
2929.86	356
2928.42	380
2926.98	402
2925.55	400.5
2924.11	399
2922.67	390
2921.23	380
2919.79	392
2918.35	408
2916.91	384
2915.47	417
2914.03	391
2912.59	398
2911.15	448.5
2909.71	436
2908.26	417.5
2906.82	434
2905.38	441
2903.94	445.5
2902.49	432.5
2901.05	452
2899.6	445
2898.16	452
2896.71	439.5
2895.27	469
2893.82	453
2892.38	469
2890.93	466.5
2889.48	470.5
2888.03	489
2886.59	469
2885.14	472.5
2883.69	451
2882.24	465.5
2880.79	491
2879.34	458.5
2877.89	450
2876.44	435
2874.99	466
2873.54	483
2872.09	431.5
2870.64	470
2869.18	485
2867.73	453
2866.28	449.5
2864.83	474
2863.37	446
2861.92	487
2860.46	436
2859.01	459
2857.55	476
2856.1	493
2854.64	487.5
2853.19	462
2851.73	455.5
2850.27	466.5
2848.81	467.5
2847.36	458.5
2845.9	460.5
2844.44	444
2842.98	438.5
2841.52	400
2840.06	377
2838.6	383
2837.14	326.5
2835.68	338
2834.22	336
2832.76	314
2831.3	309
2829.83	304
2828.37	280
2826.91	268
2825.44	278
2823.98	251.5
2822.52	249.5
2821.05	233.5
2819.59	233
2818.12	214
2816.66	256
2815.19	245
2813.72	236.5
2812.26	222
2810.79	200.5
2809.32	242.5
2807.85	200
2806.38	212
2804.92	202.5
2803.45	198
2801.98	225.5
2800.51	193
2799.04	223
2797.57	217
2796.1	210.5
2794.62	203
2793.15	178.5
2791.68	195
2790.21	203.5
2788.73	205
2787.26	194
2785.79	205
2784.31	208
2782.84	203.5
2781.36	206
2779.89	221
2778.41	204.5
2776.94	160
2775.46	212.5
2773.99	194.5
2772.51	170
2771.03	179
2769.55	199
2768.07	195
2766.6	183.5
2765.12	182.5
2763.64	208.5
2762.16	195
2760.68	176
2759.2	170
2757.72	189
2756.24	194
2754.75	201.5
2753.27	203.5
2751.79	194
2750.31	181.5
2748.82	199
2747.34	184
2745.86	222
2744.37	172
2742.89	207.5
2741.4	194
2739.92	196
2738.43	225.5
2736.94	196
2735.46	211.5
2733.97	191.5
2732.48	193
2731	206
2729.51	208
2728.02	242
2726.53	209
2725.04	211.5
2723.55	222
2722.06	204.5
2720.57	204
2719.08	205
2717.59	241
2716.1	186.5
2714.61	225
2713.11	201
2711.62	207
2710.13	196.5
2708.64	209
2707.14	196
2705.65	213
2704.15	212
2702.66	204.5
2701.16	199.5
2699.67	219
2698.17	174
2696.67	216
2695.18	194.5
2693.68	205.5
2692.18	205.5
2690.69	201.5
2689.19	186
2687.69	181.5
2686.19	175
2684.69	200
2683.19	220.5
2681.69	170
2680.19	192.5
2678.69	194
2677.19	163
2675.68	206
2674.18	195
2672.68	164.5
2671.18	199
2669.67	203.5
2668.17	185
2666.66	181
2665.16	178
2663.66	206.5
2662.15	192.5
2660.64	214
2659.14	197.5
2657.63	177
2656.13	197
2654.62	182
2653.11	187
2651.6	209
2650.09	178
2648.58	171
2647.08	190
2645.57	173
2644.06	180.5
2642.55	192
2641.04	153
2639.52	173
2638.01	183.5
2636.5	187
2634.99	187
2633.48	175
2631.96	177.5
2630.45	167
2628.94	189.5
2627.42	162
2625.91	185.5
2624.39	171
2622.88	174.5
2621.36	202.5
2619.85	188.5
2618.33	196
2616.81	182
2615.3	191.5
2613.78	177.5
2612.26	183
2610.74	190.5
2609.22	160
2607.7	182
2606.18	162.5
2604.66	212.5
2603.14	165
2601.62	150
2600.1	130
2598.58	175
2597.06	194
2595.54	156
2594.01	184.5
2592.49	171
2590.97	178
2589.44	162.5
2587.92	181
2586.39	157
2584.87	160.5
2583.34	158.5
2581.82	169
2580.29	159
2578.76	149
2577.24	167
2575.71	140.5
2574.18	171
2572.65	149
2571.13	173.5
2569.6	158.5
2568.07	171.5
2566.54	179
2565.01	160
2563.48	173.5
2561.95	170
2560.42	176.5
2558.88	148
2557.35	192.5
2555.82	160
2554.29	163.5
2552.75	167.5
2551.22	170
2549.69	167
2548.15	154.5
2546.62	130
2545.08	178
2543.55	178
2542.01	154
2540.47	161.5
2538.94	158
2537.4	164
2535.86	158
2534.33	135.5
2532.79	175.5
2531.25	166.5
2529.71	174.5
2528.17	148
2526.63	139.5
2525.09	165
2523.55	152
2522.01	161
2520.47	132
2518.92	153.5
2517.38	118
2515.84	152.5
2514.3	148
2512.75	144
2511.21	176.5
2509.67	135
2508.12	158
2506.58	142
2505.03	151
2503.49	160
2501.94	135.5
2500.39	152
2498.85	147
2497.3	132.5
2495.75	138
2494.2	144.5
2492.65	157
2491.11	176.5
2489.56	143
2488.01	136
2486.46	136.5
2484.91	157.5
2483.36	125.5
2481.8	143
2480.25	130.5
2478.7	138
2477.15	150
2475.6	143
2474.04	140
2472.49	156.5
2470.93	147
2469.38	127
2467.83	153.5
2466.27	146
2464.71	157.5
2463.16	129
2461.6	123.5
2460.05	151
2458.49	137.5
2456.93	146
2455.37	132
2453.81	121
2452.26	118
2450.7	144
2449.14	127
2447.58	149
2446.02	151.5
2444.46	167.5
2442.9	111
2441.33	133.5
2439.77	154
2438.21	124
2436.65	139
2435.08	152
2433.52	125
2431.96	161.5
2430.39	151.5
2428.83	112.5
2427.26	136.5
2425.7	147
2424.13	138.5
2422.56	144.5
2421	117
2419.43	124
2417.86	137
2416.3	116.5
2414.73	136.5
2413.16	134.5
2411.59	120
2410.02	130
2408.45	119
2406.88	122
2405.31	131
2403.74	121.5
2402.17	127
2400.6	126
2399.02	117
2397.45	136.5
2395.88	111.5
2394.3	133
2392.73	110.5
2391.16	137
2389.58	107
2388.01	128
2386.43	116.5
2384.86	133
2383.28	115
2381.7	152.5
2380.13	122
2378.55	109
2376.97	128
2375.39	118
2373.81	104
2372.23	133
2370.65	144
2369.07	97
2367.49	157.5
2365.91	128
2364.33	119.5
2362.75	123.5
2361.17	112.5
2359.59	120
2358.01	120
2356.42	125.5
2354.84	113.5
2353.25	129.5
2351.67	124.5
2350.09	134
2348.5	125.5
2346.92	125
2345.33	118
2343.74	131.5
2342.16	123
2340.57	140
2338.98	122.5
2337.39	111
2335.81	127.5
2334.22	130
2332.63	143.5
2331.04	144
2329.45	158.5
2327.86	132.5
2326.27	135
2324.68	136
2323.09	120
2321.49	127
2319.9	116
2318.31	121
2316.72	131
2315.12	129.5
2313.53	98
2311.93	101
2310.34	116
2308.74	108
2307.15	118.5
2305.55	117.5
2303.96	77
2302.36	114
2300.76	119.5
2299.17	126
2297.57	119
2295.97	122
2294.37	112.5
2292.77	109
2291.17	113
2289.57	123
2287.97	101
2286.37	99
2284.77	116.5
2283.17	117
2281.57	127
2279.96	108
2278.36	158.5
2276.76	113.5
2275.15	105.5
2273.55	102
2271.95	116.5
2270.34	126
2268.74	107
2267.13	86
2265.52	97
2263.92	136.5
2262.31	122
2260.7	127.5
2259.1	103
2257.49	121
2255.88	133
2254.27	102
2252.66	132
2251.05	117
2249.44	95.5
2247.83	139
2246.22	89
2244.61	124
2243	107
2241.39	125
2239.77	121.5
2238.16	99
2236.55	118
2234.93	107
2233.32	128.5
2231.7	115
2230.09	139.5
2228.47	102
2226.86	99
2225.24	112
2223.63	118.5
2222.01	116.5
2220.39	116
2218.77	91
2217.16	108
2215.54	124
2213.92	120
2212.3	109.5
2210.68	90
2209.06	115
2207.44	94
2205.82	103.5
2204.19	109
2202.57	115
2200.95	114.5
2199.33	94.5
2197.7	126.5
2196.08	107
2194.46	92.5
2192.83	109
2191.21	110
2189.58	112
2187.96	120.5
2186.33	106.5
2184.7	92
2183.08	120.5
2181.45	73.5
2179.82	137.5
2178.19	124
2176.57	100
2174.94	111.5
2173.31	106.5
2171.68	114
2170.05	101.5
2168.42	106
2166.79	111.5
2165.16	108
2163.52	107
2161.89	97
2160.26	122
2158.63	101.5
2156.99	107.5
2155.36	125
2153.73	96.5
2152.09	114
2150.46	116
2148.82	97
2147.18	101
2145.55	105
2143.91	73
2142.27	109
2140.64	105
2139	97.5
2137.36	89
2135.72	102
2134.08	93.5
2132.44	97
2130.8	87
2129.16	112
2127.52	85.5
2125.88	113
2124.24	101.5
2122.6	102
2120.95	103
2119.31	106.5
2117.67	113.5
2116.02	111
2114.38	99.5
2112.74	98.5
2111.09	89.5
2109.45	96.5
2107.8	101
2106.15	91
2104.51	101.5
2102.86	107.5
2101.21	91
2099.56	89
2097.92	54
2096.27	97.5
2094.62	85
2092.97	89.5
2091.32	112
2089.67	89
2088.02	88
2086.37	111
2084.72	90
2083.06	101
2081.41	78.5
2079.76	65.5
2078.1	109
2076.45	90
2074.8	74
2073.14	115.5
2071.49	77.5
2069.83	96
2068.18	99.5
2066.52	84.5
2064.86	78
2063.21	87
2061.55	73.5
2059.89	114.5
2058.23	75
2056.57	95
2054.92	80
2053.26	96
2051.6	68
2049.94	94
2048.27	101
2046.61	95.5
2044.95	106
2043.29	79
2041.63	109
2039.97	79
2038.3	72
2036.64	96
2034.97	72
2033.31	79
2031.64	105.5
2029.98	105
2028.31	115
2026.65	108
2024.98	101.5
2023.31	84
2021.65	89
2019.98	108
2018.31	78
2016.64	99
2014.97	74
2013.3	98
2011.63	89
2009.96	120
2008.29	71.5
2006.62	90
2004.95	118
2003.28	92
2001.6	101.5
1999.93	101
1998.26	115
1996.58	112
1994.91	74
1993.24	105.5
1991.56	109.5
1989.89	124.5
1988.21	88
1986.53	97.5
1984.86	95
1983.18	91
1981.5	80.5
1979.82	110.5
1978.15	101
1976.47	81
1974.79	104
1973.11	101
1971.43	101.5
1969.75	106.5
1968.07	98
1966.38	115.5
1964.7	109
1963.02	57.5
1961.34	118
1959.66	117
1957.97	78
1956.29	96.5
1954.6	140
1952.92	111
1951.23	81.5
1949.55	103
1947.86	103.5
1946.18	107
1944.49	102.5
1942.8	91.5
1941.11	82.5
1939.43	115
1937.74	110.5
1936.05	126
1934.36	124
1932.67	95
1930.98	89
1929.29	58
1927.6	101.5
1925.91	67
1924.21	92.5
1922.52	108
1920.83	87
1919.14	78
1917.44	112
1915.75	89
1914.05	89
1912.36	72
1910.66	99
1908.97	110
1907.27	86.5
1905.58	92
1903.88	96
1902.18	98.5
1900.48	103
1898.79	120
1897.09	106
1895.39	101
1893.69	84.5
1891.99	122.5
1890.29	92
1888.59	75.5
1886.89	96.5
1885.18	110.5
1883.48	120
1881.78	87.5
1880.08	102
1878.37	84
1876.67	100.5
1874.96	100
1873.26	86
1871.55	106
1869.85	107.5
1868.14	127.5
1866.44	86
1864.73	79
1863.02	80
1861.32	77
1859.61	102.5
1857.9	85
1856.19	115.5
1854.48	76
1852.77	100
1851.06	83
1849.35	98.5
1847.64	78.5
1845.93	88
1844.21	94
1842.5	115.5
1840.79	72
1839.08	105.5
1837.36	90
1835.65	89
1833.93	90
1832.22	86
1830.5	109
1828.79	105
1827.07	97.5
1825.36	71
1823.64	99.5
1821.92	112.5
1820.2	101
1818.48	104.5
1816.77	78.5
1815.05	112
1813.33	92.5
1811.61	116
1809.89	93
1808.16	90.5
1806.44	100.5
1804.72	116
1803	93
1801.28	99
1799.55	69
1797.83	94
1796.11	112
1794.38	79.5
1792.66	103.5
1790.93	100.5
1789.21	85
1787.48	121
1785.75	106.5
1784.03	81
1782.3	114
1780.57	95.5
1778.84	66.5
1777.11	89
1775.38	92
1773.66	104
1771.93	108.5
1770.19	119
1768.46	102.5
1766.73	100
1765	123
1763.27	110
1761.54	122.5
1759.8	114
1758.07	141.5
1756.34	109
1754.6	139
1752.87	152
1751.13	157
1749.4	170
1747.66	168
1745.92	165
1744.19	139.5
1742.45	162
1740.71	151
1738.97	154.5
1737.23	143
1735.49	162.5
1733.75	99.5
1732.01	137
1730.27	134.5
1728.53	119.5
1726.79	127
1725.05	107
1723.31	97.5
1721.57	122.5
1719.82	127
1718.08	98
1716.34	103
1714.59	114
1712.85	121.5
1711.1	110.5
1709.36	121
1707.61	120.5
1705.86	107
1704.12	123
1702.37	123.5
1700.62	101
1698.87	98
1697.12	133
1695.37	114
1693.62	126
1691.87	123
1690.12	129.5
1688.37	114.5
1686.62	112
1684.87	114
1683.12	114
1681.36	114
1679.61	137
1677.86	142.5
1676.1	147.5
1674.35	144
1672.59	147
1670.84	165.5
1669.08	165
1667.33	170.5
1665.57	201
1663.81	244
1662.06	250
1660.3	295
1658.54	314
1656.78	342.5
1655.02	304.5
1653.26	278
1651.5	275
1649.74	219
1647.98	214
1646.22	173
1644.46	179.5
1642.7	162
1640.93	161.5
1639.17	158
1637.41	152.5
1635.64	136
1633.88	108.5
1632.11	122
1630.35	115
1628.58	125.5
1626.81	104.5
1625.05	114
1623.28	117
1621.51	133
1619.75	143.5
1617.98	116.5
1616.21	91
1614.44	115.5
1612.67	114
1610.9	115.5
1609.13	117
1607.36	138
1605.58	116.5
1603.81	123
1602.04	127
1600.27	111
1598.49	113
1596.72	112
1594.95	107
1593.17	117
1591.4	118.5
1589.62	131.5
1587.84	108.5
1586.07	138
1584.29	143.5
1582.51	115.5
1580.74	134.5
1578.96	145.5
1577.18	114
1575.4	108
1573.62	126.5
1571.84	140.5
1570.06	133
1568.28	128.5
1566.5	135
1564.72	114
1562.93	127
1561.15	158.5
1559.37	113.5
1557.58	167
1555.8	151
1554.02	128
1552.23	139.5
1550.45	156
1548.66	129
1546.87	159
1545.09	170
1543.3	144
1541.51	100
1539.72	133.5
1537.94	124
1536.15	127
1534.36	146.5
1532.57	124
1530.78	142.5
1528.99	149
1527.2	145.5
1525.4	144.5
1523.61	136
1521.82	132
1520.03	162.5
1518.23	140
1516.44	157
1514.65	145.5
1512.85	130
1511.06	158
1509.26	139
1507.46	159.5
1505.67	150
1503.87	183
1502.07	159
1500.28	183.5
1498.48	171
1496.68	196
1494.88	174
1493.08	172
1491.28	198
1489.48	191
1487.68	207.5
1485.88	230
1484.08	222
1482.27	255
1480.47	244.5
1478.67	248.5
1476.86	291
1475.06	319
1473.25	384.5
1471.45	388
1469.64	435.5
1467.84	460
1466.03	487.5
1464.23	510
1462.42	595.5
1460.61	593
1458.8	627
1456.99	641.5
1455.18	657
1453.37	717
1451.56	684
1449.75	734.5
1447.94	757.5
1446.13	810
1444.32	805
1442.51	873.5
1440.7	837
1438.88	779
1437.07	733.5
1435.26	639
1433.44	642.5
1431.63	481.5
1429.81	432.5
1427.99	414
1426.18	365.5
1424.36	341
1422.54	325.5
1420.73	325.5
1418.91	317
1417.09	302
1415.27	273.5
1413.45	244
1411.63	222.5
1409.81	235.5
1407.99	231.5
1406.17	232
1404.35	218.5
1402.53	208
1400.7	223.5
1398.88	227
1397.06	217.5
1395.23	196
1393.41	216.5
1391.58	174
1389.76	190.5
1387.93	204
1386.11	174
1384.28	224
1382.45	220.5
1380.62	213
1378.8	220
1376.97	222
1375.14	230
1373.31	253
1371.48	228
1369.65	222.5
1367.82	231
1365.99	234.5
1364.16	214
1362.32	223.5
1360.49	221
1358.66	197
1356.82	247
1354.99	253
1353.16	229
1351.32	222
1349.48	258.5
1347.65	249
1345.81	239
1343.98	264.5
1342.14	235
1340.3	251
1338.46	287.5
1336.62	252
1334.79	239
1332.95	273.5
1331.11	294
1329.27	304.5
1327.42	313
1325.58	334
1323.74	328
1321.9	340
1320.06	375.5
1318.21	402
1316.37	405.5
1314.53	438
1312.68	468
1310.84	527
1308.99	540
1307.15	604
1305.3	617
1303.45	638
1301.61	691
1299.76	702
1297.91	662
1296.06	608
1294.21	552
1292.36	505
1290.51	468
1288.66	462.5
1286.81	401
1284.96	410
1283.11	377.5
1281.26	399.5
1279.4	405
1277.55	388
1275.7	385.5
1273.84	416.5
1271.99	414
1270.13	409
1268.28	417.5
1266.42	414.5
1264.56	390
1262.71	402.5
1260.85	409.5
1258.99	385
1257.13	362
1255.27	361
1253.41	362
1251.56	335
1249.7	314
1247.83	288.5
1245.97	297
1244.11	298
1242.25	301
1240.39	257.5
1238.52	268.5
1236.66	260
1234.8	266
1232.93	244
1231.07	232
1229.2	237
1227.34	253
1225.47	231
1223.6	247
1221.74	226
1219.87	240
1218	221
1216.13	228
1214.26	219
1212.39	189
1210.53	217
1208.65	215
1206.78	226.5
1204.91	237
1203.04	191
1201.17	223
1199.3	199
1197.42	220
1195.55	226.5
1193.68	233.5
1191.8	229.5
1189.93	196
1188.05	215
1186.17	258
1184.3	218.5
1182.42	231.5
1180.54	230
1178.67	216.5
1176.79	263.5
1174.91	227.5
1173.03	262.5
1171.15	232
1169.27	221
1167.39	218.5
1165.51	272
1163.63	240
1161.75	223
1159.86	223
1157.98	242.5
1156.1	214.5
1154.21	269
1152.33	246
1150.44	250
1148.56	247
1146.67	253
1144.79	277.5
1142.9	252
1141.01	218
1139.12	296
1137.24	305
1135.35	314
1133.46	365.5
1131.57	390
1129.68	431.5
1127.79	395
1125.9	384
1124.01	364.5
1122.12	352.5
1120.22	343.5
1118.33	397.5
1116.44	337.5
1114.54	336.5
1112.65	315
1110.75	357.5
1108.86	355.5
1106.96	374
1105.07	387
1103.17	375
1101.27	402
1099.38	409
1097.48	451.5
1095.58	440
1093.68	451.5
1091.78	461.5
1089.88	463
1087.98	505.5
1086.08	495.5
1084.18	504
1082.28	497
1080.38	528.5
1078.47	508.5
1076.57	505
1074.67	498
1072.76	510
1070.86	507.5
1068.95	490
1067.05	559
1065.14	606
1063.24	596
1061.33	550
1059.42	504
1057.51	462.5
1055.6	436
1053.7	402
1051.79	375.5
1049.88	396
1047.97	369
1046.06	373
1044.14	355
1042.23	339
1040.32	362.5
1038.41	329
1036.5	369.5
1034.58	348
1032.67	333.5
1030.75	369.5
1028.84	354
1026.92	340
1025.01	367
1023.09	348.5
1021.17	364
1019.26	339
1017.34	356
1015.42	343.5
1013.5	328
1011.58	311.5
1009.66	321
1007.74	328
1005.82	299
1003.9	303
1001.98	302
1000.06	298
998.134	286.5
996.212	314
994.288	278.5
992.364	317
990.44	287
988.515	312
986.589	300.5
984.663	314.5
982.737	293.5
980.81	353
978.883	320
976.955	362
975.027	369
973.098	352.5
971.169	343
969.239	352
967.308	378.5
965.378	380
963.447	351
961.516	340
959.583	333
957.65	371
955.718	353
953.784	349
951.85	344
949.916	365
947.981	381.5
946.045	360.5
944.109	332
942.173	367
940.236	359.5
938.298	358.5
936.36	344.5
934.422	379.5
932.484	380.5
930.544	382.5
928.604	361
926.664	371.5
924.724	375
922.782	395
920.84	383
918.898	381
916.955	383
915.012	368
913.068	370
911.124	386
909.18	376
907.235	386
905.289	384
903.343	400
901.397	401
899.45	430.5
897.502	418
895.554	426.5
893.605	442.5
891.657	452
889.707	471
887.758	421
885.807	463.5
883.856	439
881.905	452.5
879.953	436
878.001	475.5
876.048	501
874.094	470
872.14	475
870.186	497.5
868.232	501
866.276	490.5
864.321	458.5
862.365	444.5
860.408	441.5
858.451	479
856.493	418
854.535	436
852.576	438.5
850.617	463
848.658	391
846.698	440.5
844.737	448.5
842.776	445.5
840.814	439
838.852	434.5
836.89	420.5
834.927	392.5
832.963	410.5
830.999	376
829.035	388
827.07	367.5
825.105	329
823.139	360.5
821.172	366
819.206	355.5
817.238	341.5
815.27	329.5
813.301	317.5
811.333	309.5
809.363	321.5
807.394	298
805.424	320
803.453	302
801.482	279.5
799.509	298.5
797.538	301.5
795.565	286
793.592	274
791.618	281.5
789.643	305
787.669	236.5
785.693	291
783.718	262
781.742	264
779.765	285
777.788	280
775.811	263.5
773.832	269.5
771.853	294.5
769.875	287
767.895	258.5
765.915	272
763.934	267.5
761.953	280.5
759.972	265.5
757.99	267
756.007	265.5
754.024	267.5
752.041	275.5
750.056	265
748.072	279
746.087	264.5
744.102	291.5
742.116	282.5
740.13	265.5
738.143	293.5
736.155	293
734.167	275.5
732.179	276.5
730.19	296.5
728.2	294
726.21	290
724.22	283
722.229	280.5
720.237	300.5
718.246	284
716.253	307.5
714.26	279
712.267	272
710.273	281
708.279	265
706.284	242
704.289	281.5
702.293	253.5
700.296	272
698.3	240.5
696.303	256
694.305	240
692.307	256.5
690.307	253
688.308	261
686.309	252.5
684.308	258
682.308	248
680.306	257.5
678.304	263
676.302	291
674.3	251
672.296	290
670.293	254.5
668.289	258
666.284	275.5
664.278	261
662.273	292
660.266	273.5
658.26	271.5
656.252	271
654.244	275
652.237	280.5
650.227	304.5
648.218	310
646.209	241.5
644.198	278
642.188	300
640.177	290
638.165	290
636.153	300
634.14	283
632.128	289
630.113	304
628.099	277.5
626.085	304.5
624.07	331
622.054	312.5
620.038	310.5
618.021	314
616.004	320
613.986	309.5
611.968	286
609.949	314.5
607.93	332
605.911	323
603.891	305
601.87	343
599.848	347
597.827	328
595.805	336.5
593.782	331
591.759	334
589.735	319
587.711	316
585.687	329.5
583.661	306.5
581.636	359
579.609	315
577.583	313
575.555	326
573.527	258
571.5	288
569.471	344
567.441	306
565.412	292.5
563.382	332.5
561.351	301
559.32	291.5
557.289	333
555.257	323
553.223	351
551.19	315.5
549.157	330
547.122	324
545.088	354.5
543.053	381
541.017	356.5
538.981	386.5
536.943	389.5
534.907	375
532.869	405.5
530.831	498.5
528.792	588.5
526.752	739
524.713	960
522.673	1085
520.632	1086.5
518.591	942
516.549	771
514.507	621
512.464	558.5
510.42	463
508.377	424.5
506.332	397.5
504.288	418
502.242	395
500.196	356
498.15	391
496.104	385.5
494.056	367
492.008	382.5
489.96	373.5
487.911	382
485.862	364
483.812	377.5
481.761	384
479.71	373.5
477.659	373.5
475.607	382
473.555	384.5
471.502	356
469.448	398
467.395	411
465.34	376
463.285	378
461.23	349
459.174	391
457.118	396.5
455.061	382.5
453.003	369
450.945	399.5
448.887	407
446.828	366
444.768	389
442.708	387
440.647	393.5
438.587	398
436.525	414
434.463	395
432.4	384
430.337	387.5
428.274	408
426.21	392.5
424.145	398.5
422.079	431.5
420.014	385
417.948	412.5
415.882	408
413.814	399
411.746	420
409.679	417.5
407.609	430
405.54	404
403.47	404
401.401	414.5
399.329	441
397.258	388
395.187	395
393.114	407
391.041	411
388.968	413
386.895	432
384.82	426.5
382.745	415.5
380.67	454.5
378.594	394
376.517	422.5
374.44	447.5
372.363	452
370.286	445.5
368.207	421
366.128	409.5
364.049	443.5
361.969	427
359.888	428
357.807	414
355.725	442.5
353.643	446.5
351.561	461.5
349.477	445.5
347.394	451.5
345.31	419
343.226	440
341.141	477
339.055	432.5
336.968	448.5
334.882	436.5
332.795	453
330.707	476
328.618	468
326.53	446
324.44	471
322.351	452
320.26	475.5
318.17	482
316.078	460
313.987	477.5
311.895	503.5
309.802	500.5
307.708	496.5
305.614	521.5
303.52	489
301.425	531
299.329	527.5
297.233	509.5
295.137	517.5
293.039	530.5
290.942	542.5
288.844	538.5
286.745	539
284.647	541.5
282.546	543.5
280.446	542.5
278.346	557
276.245	547.5
274.143	572.5
272.041	555
269.939	553.5
267.835	590
265.731	563.5
263.627	566
261.522	605
259.417	608
257.311	595.5
255.204	579.5
253.098	631
250.99	620.5
248.882	640.5
246.774	629
244.664	634
242.555	630
240.445	665.5
238.334	666
236.223	643
234.112	709.5
232	683.5
229.888	655
227.775	720
225.661	656
223.546	696
221.431	702.5
219.316	682.5
217.201	677
215.084	719
212.967	711.5
210.85	711
208.732	706.5
206.614	739
204.495	712
202.375	722
200.256	750
198.135	751.5
196.014	729.5
193.893	726.5
191.771	726
189.648	739
187.525	720
185.401	756.5
183.277	700
181.152	767.5
179.027	744.5
176.901	767
174.775	762.5
172.648	767.5
170.521	763
168.393	769.5
166.265	775
164.136	812
162.007	851.5
159.876	859.5
157.746	857
155.615	869.5
153.483	878
151.351	910.5
149.219	934.5
147.086	955.5
144.952	981.5
142.818	1037.5
140.684	1048.5
138.548	1072.5
136.413	1109
134.276	1137.5
132.139	1152
130.002	1229
127.864	1281
125.725	1316
123.587	1364
121.447	1379
119.307	1430.5
117.166	1463
115.026	1609
112.885	1640.5
110.743	1697
108.6	1743
106.456	1772.5
104.313	1771.5
102.169	1763
100.023	1714.5
97.8789	1622
95.7328	1465
93.5869	1326
91.4392	1116
89.2919	916.5
87.1447	717
84.9959	578.5
