3528.51	102
3527.23	81
3525.95	97
3524.67	134.5
3523.39	99.5
3522.1	103
3520.82	93
3519.54	115.5
3518.26	117
3516.97	102
3515.69	112.5
3514.4	77
3513.12	105
3511.84	102
3510.55	97
3509.26	96
3507.98	114.5
3506.69	112.5
3505.41	90
3504.12	114.5
3502.83	123.5
3501.54	103
3500.26	116
3498.97	126
3497.68	134
3496.39	116.5
3495.1	130
3493.81	111
3492.52	111.5
3491.23	107
3489.94	150.5
3488.65	114
3487.36	111
3486.07	139
3484.78	139
3483.49	136.5
3482.19	142.5
3480.9	138.5
3479.61	163
3478.31	155.5
3477.02	139
3475.73	179
3474.43	123
3473.14	139.5
3471.84	132
3470.54	166
3469.25	111
3467.95	130
3466.66	128
3465.36	151
3464.06	162
3462.76	161
3461.46	163
3460.17	158
3458.87	166.5
3457.57	139.5
3456.27	161
3454.97	154
3453.67	169
3452.37	126
3451.07	193.5
3449.77	172
3448.47	179
3447.16	170
3445.86	159.5
3444.56	203
3443.26	168
3441.95	189
3440.65	203.5
3439.35	166
3438.04	193.5
3436.74	157
3435.43	185
3434.13	222.5
3432.82	217
3431.52	187
3430.21	208.5
3428.9	209
3427.6	195
3426.29	214.5
3424.98	251.5
3423.67	225.5
3422.36	243.5
3421.06	199
3419.75	256.5
3418.44	224
3417.13	231
3415.82	234
3414.51	244
3413.2	214
3411.88	256
3410.57	251
3409.26	259
3407.95	237.5
3406.64	268
3405.32	249
3404.01	250.5
3402.7	256
3401.38	284
3400.07	272
3398.75	261
3397.44	301
3396.12	244
3394.81	281
3393.49	270
3392.18	262
3390.86	282
3389.54	300
3388.23	288
3386.91	277
3385.59	265
3384.27	303
3382.95	292
3381.63	326
3380.31	275
3378.99	298
3377.67	276
3376.35	308
3375.03	320
3373.71	307
3372.39	307
3371.07	326
3369.75	303.5
3368.42	311
3367.1	287.5
3365.78	338
3364.45	309
3363.13	318
3361.81	319
3360.48	357
3359.16	343
3357.83	362.5
3356.51	289
3355.18	345.5
3353.85	351
3352.53	360.5
3351.2	365
3349.87	362.5
3348.54	324
3347.22	333.5
3345.89	317.5
3344.56	373
3343.23	347
3341.9	376
3340.57	363
3339.24	354
3337.91	362
3336.58	377.5
3335.25	373
3333.92	371
3332.58	346
3331.25	363
3329.92	364
3328.59	346.5
3327.25	378.5
3325.92	369
3324.58	357
3323.25	380
3321.92	383.5
3320.58	377
3319.25	419
3317.91	367.5
3316.57	386
3315.24	409.5
3313.9	393
3312.56	392
3311.23	392.5
3309.89	405
3308.55	418
3307.21	387
3305.87	423
3304.53	403.5
3303.19	406
3301.85	432
3300.51	378
3299.17	418.5
3297.83	382
3296.49	394
3295.15	427.5
3293.81	409
3292.46	424
3291.12	440
3289.78	415.5
3288.43	420
3287.09	431
3285.75	428
3284.4	412.5
3283.06	414
3281.71	445
3280.37	434.5
3279.02	446
3277.67	439
3276.33	393
3274.98	431
3273.63	444
3272.28	457
3270.94	450
3269.59	483
3268.24	445
3266.89	463
3265.54	426
3264.19	465
3262.84	460
3261.49	426
3260.14	451
3258.79	462
3257.44	492
3256.08	494.5
3254.73	516.5
3253.38	481
3252.03	531
3250.67	530
3249.32	528
3247.96	554
3246.61	552
3245.26	559
3243.9	579
3242.54	612.5
3241.19	580
3239.83	635
3238.48	604
3237.12	623
3235.76	689
3234.41	698.5
3233.05	689.5
3231.69	696.5
3230.33	709
3228.97	768
3227.61	755.5
3226.25	775
3224.89	837.5
3223.53	825
3222.17	780
3220.81	837
3219.45	840
3218.09	849
3216.72	876
3215.36	824
3214	942
3212.63	926
3211.27	930
3209.91	926
3208.54	933
3207.18	930.5
3205.81	980
3204.45	1010
3203.08	950
3201.71	1008.5
3200.35	1001
3198.98	1014.5
3197.61	1034
3196.25	960
3194.88	982
3193.51	1025
3192.14	1016
3190.77	1020
3189.4	1071.5
3188.03	993
3186.66	1033.5
3185.29	1086.5
3183.92	1036
3182.55	1074.5
3181.18	1063.5
3179.81	1056
3178.44	1077.5
3177.06	1117
3175.69	1027
3174.32	1091
3172.94	1069.5
3171.57	1186.5
3170.2	1085
3168.82	1153.5
3167.45	1119.5
3166.07	1144
3164.69	1156
3163.32	1174
3161.94	1141.5
3160.56	1120
3159.19	1164.5
3157.81	1193.5
3156.43	1227
3155.05	1213
3153.67	1252.5
3152.3	1223
3150.92	1266
3149.54	1209
3148.16	1285
3146.78	1270
3145.4	1269
3144.01	1321.5
3142.63	1266
3141.25	1275
3139.87	1283.5
3138.49	1337
3137.1	1340
3135.72	1300
3134.34	1341
3132.95	1346
3131.57	1355.5
3130.18	1413.5
3128.8	1376.5
3127.41	1387
3126.03	1408
3124.64	1407.5
3123.25	1404
3121.87	1376
3120.48	1449
3119.09	1434.5
3117.7	1458
3116.32	1490
3114.93	1464
3113.54	1478.5
3112.15	1442
3110.76	1493.5
3109.37	1530
3107.98	1529
3106.59	1496
3105.2	1505
3103.8	1507
3102.41	1552.5
3101.02	1484
3099.63	1538
3098.23	1551
3096.84	1549.5
3095.45	1584.5
3094.05	1569
3092.66	1577
3091.26	1588.5
3089.87	1589.5
3088.47	1607
3087.08	1603.5
3085.68	1627
3084.28	1610.5
3082.89	1649
3081.49	1582
3080.09	1621.5
3078.69	1614.5
3077.3	1627
3075.9	1637
3074.5	1621
3073.1	1642.5
3071.7	1661
3070.3	1689
3068.9	1673.5
3067.5	1653.5
3066.09	1649.5
3064.69	1644.5
3063.29	1652
3061.89	1674.5
3060.48	1657
3059.08	1700.5
3057.68	1706.5
3056.27	1682
3054.87	1704
3053.46	1684
3052.06	1755
3050.65	1739
3049.25	1737
3047.84	1692
3046.44	1753
3045.03	1734
3043.62	1734.5
3042.21	1769.5
3040.81	1757
3039.4	1750
3037.99	1777
3036.58	1749.5
3035.17	1787.5
3033.76	1789
3032.35	1781
3030.94	1795
3029.53	1779
3028.12	1786.5
3026.71	1801
3025.29	1775
3023.88	1818
3022.47	1842
3021.06	1829
3019.64	1835.5
3018.23	1826
3016.82	1893
3015.4	1844
3013.99	1835.5
3012.57	1856.5
3011.15	1818.5
3009.74	1847.5
3008.32	1870.5
3006.91	1848.5
3005.49	1840.5
3004.07	1865.5
3002.65	1916
3001.24	1888
2999.82	1910.5
2998.4	1927.5
2996.98	1923
2995.56	1936
2994.14	1926
2992.72	1963.5
2991.3	1954
2989.88	1988
2988.46	1996.5
2987.03	1985.5
2985.61	1988
2984.19	1980.5
2982.77	2047.5
2981.34	2035.5
2979.92	2035.5
2978.49	2055
2977.07	2082
2975.65	2076
2974.22	2103
2972.79	2097
2971.37	2082.5
2969.94	2122.5
2968.52	2115
2967.09	2162
2965.66	2119
2964.23	2167.5
2962.81	2210
2961.38	2152.5
2959.95	2176.5
2958.52	2198.5
2957.09	2194
2955.66	2197
2954.23	2228
2952.8	2241
2951.37	2228
2949.94	2222.5
2948.5	2260
2947.07	2297.5
2945.64	2303.5
2944.21	2287.5
2942.77	2292
2941.34	2307
2939.91	2316.5
2938.47	2325.5
2937.04	2360
2935.6	2380
2934.17	2326
2932.73	2322.5
2931.29	2417.5
2929.86	2369
2928.42	2443
2926.98	2377
2925.55	2393.5
2924.11	2468.5
2922.67	2394
2921.23	2453
2919.79	2407
2918.35	2448.5
2916.91	2411
2915.47	2433.5
2914.03	2474
2912.59	2442.5
2911.15	2538.5
2909.71	2536
2908.26	2470
2906.82	2536.5
2905.38	2535
2903.94	2490
2902.49	2554
2901.05	2562.5
2899.6	2534.5
2898.16	2541
2896.71	2537
2895.27	2539
2893.82	2524
2892.38	2499.5
2890.93	2506
2889.48	2542
2888.03	2562.5
2886.59	2504
2885.14	2527
2883.69	2519.5
2882.24	2565.5
2880.79	2553.5
2879.34	2534
2877.89	2517.5
2876.44	2455.5
2874.99	2512
2873.54	2503.5
2872.09	2520.5
2870.64	2506
2869.18	2531.5
2867.73	2570
2866.28	2575
2864.83	2577
2863.37	2531.5
2861.92	2617
2860.46	2537
2859.01	2510
2857.55	2620.5
2856.1	2554
2854.64	2542
2853.19	2536.5
2851.73	2567
2850.27	2575.5
2848.81	2555.5
2847.36	2570
2845.9	2581
2844.44	2538
2842.98	2526
2841.52	2507
2840.06	2488
2838.6	2496.5
2837.14	2415
2835.68	2459.5
2834.22	2472.5
2832.76	2430.5
2831.3	2439
2829.83	2440
2828.37	2376
2826.91	2380.5
2825.44	2359
2823.98	2363
2822.52	2340
2821.05	2351
2819.59	2337
2818.12	2301.5
2816.66	2344
2815.19	2333.5
2813.72	2331.5
2812.26	2321.5
2810.79	2297
2809.32	2378
2807.85	2304
2806.38	2313.5
2804.92	2322
2803.45	2248
2801.98	2317
2800.51	2258.5
2799.04	2292
2797.57	2274.5
2796.1	2265.5
2794.62	2302
2793.15	2294.5
2791.68	2265
2790.21	2275.5
2788.73	2242.5
2787.26	2274
2785.79	2232.5
2784.31	2221
2782.84	2259
2781.36	2217
2779.89	2258.5
2778.41	2243
2776.94	2245.5
2775.46	2264.5
2773.99	2235
2772.51	2246
2771.03	2265.5
2769.55	2277.5
2768.07	2268.5
2766.6	2287.5
2765.12	2276.5
2763.64	2265
2762.16	2256
2760.68	2250
2759.2	2247.5
2757.72	2251.5
2756.24	2247
2754.75	2219
2753.27	2266
2751.79	2255.5
2750.31	2248.5
2748.82	2222.5
2747.34	2241.5
2745.86	2243.5
2744.37	2247.5
2742.89	2299
2741.4	2234
2739.92	2249.5
2738.43	2253
2736.94	2277.5
2735.46	2256.5
2733.97	2205
2732.48	2235
2731	2225.5
2729.51	2266.5
2728.02	2260.5
2726.53	2262.5
2725.04	2248.5
2723.55	2249
2722.06	2270.5
2720.57	2262.5
2719.08	2243.5
2717.59	2267.5
2716.1	2219.5
2714.61	2257
2713.11	2243
2711.62	2223
2710.13	2223.5
2708.64	2237.5
2707.14	2199
2705.65	2221
2704.15	2185.5
2702.66	2210
2701.16	2217
2699.67	2180.5
2698.17	2164
2696.67	2206.5
2695.18	2235.5
2693.68	2206
2692.18	2188
2690.69	2188.5
2689.19	2180
2687.69	2150
2686.19	2121.5
2684.69	2159
2683.19	2193
2681.69	2096
2680.19	2162.5
2678.69	2158.5
2677.19	2159.5
2675.68	2132.5
2674.18	2152
2672.68	2126
2671.18	2198
2669.67	2155
2668.17	2148
2666.66	2153
2665.16	2099
2663.66	2135.5
2662.15	2114
2660.64	2095
2659.14	2108.5
2657.63	2114
2656.13	2118
2654.62	2126
2653.11	2110
2651.6	2172
2650.09	2117
2648.58	2120
2647.08	2121.5
2645.57	2089.5
2644.06	2114
2642.55	2114
2641.04	2033.5
2639.52	2058
2638.01	2110.5
2636.5	2099
2634.99	2034.5
2633.48	2083
2631.96	2036
2630.45	2065.5
2628.94	2040
2627.42	2042
2625.91	2071
2624.39	2038
2622.88	2025
2621.36	2060.5
2619.85	2049
2618.33	2082
2616.81	2009
2615.3	2008
2613.78	2098.5
2612.26	2042.5
2610.74	2020
2609.22	2007.5
2607.7	1985
2606.18	2028
2604.66	2010.5
2603.14	1999.5
2601.62	2017.5
2600.1	1987.5
2598.58	2013
2597.06	2024
2595.54	1994
2594.01	2004
2592.49	1978.5
2590.97	1999
2589.44	1997
2587.92	1985
2586.39	1980
2584.87	1975
2583.34	1989.5
2581.82	1986
2580.29	1948.5
2578.76	1946
2577.24	1944
2575.71	1930
2574.18	1938.5
2572.65	1930
2571.13	1910
2569.6	1919.5
2568.07	1940.5
2566.54	1891
2565.01	1936.5
2563.48	1928.5
2561.95	1890.5
2560.42	1923
2558.88	1877.5
2557.35	1897
2555.82	1899
2554.29	1834
2552.75	1891
2551.22	1864
2549.69	1890
2548.15	1846
2546.62	1851
2545.08	1878
2543.55	1856
2542.01	1877.5
2540.47	1840
2538.94	1854
2537.4	1808
2535.86	1829
2534.33	1813
2532.79	1829
2531.25	1834
2529.71	1816
2528.17	1813.5
2526.63	1756.5
2525.09	1823
2523.55	1791.5
2522.01	1778
2520.47	1729
2518.92	1742
2517.38	1727
2515.84	1743
2514.3	1721
2512.75	1745.5
2511.21	1800
2509.67	1716
2508.12	1723
2506.58	1696
2505.03	1746
2503.49	1731.5
2501.94	1679
2500.39	1761.5
2498.85	1745
2497.3	1671
2495.75	1679.5
2494.2	1707.5
2492.65	1681
2491.11	1741
2489.56	1658
2488.01	1718.5
2486.46	1673.5
2484.91	1664.5
2483.36	1609
2481.8	1637.5
2480.25	1639
2478.7	1661.5
2477.15	1646
2475.6	1627
2474.04	1629.5
2472.49	1622
2470.93	1600
2469.38	1601.5
2467.83	1603
2466.27	1623.5
2464.71	1605.5
2463.16	1592
2461.6	1574
2460.05	1573.5
2458.49	1549.5
2456.93	1552.5
2455.37	1559.5
2453.81	1552
2452.26	1536.5
2450.7	1542.5
2449.14	1552.5
2447.58	1536
2446.02	1531
2444.46	1549.5
2442.9	1532.5
2441.33	1486
2439.77	1526
2438.21	1489
2436.65	1467
2435.08	1505
2433.52	1477
2431.96	1481
2430.39	1436
2428.83	1449
2427.26	1465.5
2425.7	1477
2424.13	1507.5
2422.56	1438.5
2421	1421
2419.43	1422.5
2417.86	1457
2416.3	1487
2414.73	1447.5
2413.16	1470.5
2411.59	1435
2410.02	1448
2408.45	1426.5
2406.88	1410.5
2405.31	1399.5
2403.74	1410.5
2402.17	1465
2400.6	1403
2399.02	1436
2397.45	1443.5
2395.88	1403
2394.3	1414
2392.73	1372
2391.16	1430
2389.58	1358.5
2388.01	1407
2386.43	1370
2384.86	1404
2383.28	1340.5
2381.7	1392
2380.13	1402
2378.55	1358.5
2376.97	1378
2375.39	1352
2373.81	1364
2372.23	1388.5
2370.65	1346
2369.07	1363
2367.49	1345.5
2365.91	1315.5
2364.33	1336.5
2362.75	1346.5
2361.17	1324
2359.59	1358
2358.01	1340.5
2356.42	1336
2354.84	1307.5
2353.25	1301
2351.67	1309
2350.09	1339.5
2348.5	1285.5
2346.92	1310
2345.33	1306
2343.74	1271
2342.16	1318
2340.57	1315.5
2338.98	1318.5
2337.39	1297
2335.81	1318
2334.22	1301
2332.63	1328
2331.04	1291
2329.45	1308.5
2327.86	1260
2326.27	1293.5
2324.68	1295
2323.09	1253
2321.49	1266
2319.9	1244
2318.31	1254.5
2316.72	1293
2315.12	1278
2313.53	1247.5
2311.93	1236
2310.34	1263.5
2308.74	1207.5
2307.15	1226
2305.55	1229.5
2303.96	1240.5
2302.36	1201
2300.76	1231.5
2299.17	1204.5
2297.57	1198.5
2295.97	1193
2294.37	1182.5
2292.77	1162
2291.17	1196.5
2289.57	1199
2287.97	1161
2286.37	1193.5
2284.77	1157
2283.17	1176.5
2281.57	1203
2279.96	1150.5
2278.36	1202
2276.76	1146
2275.15	1137.5
2273.55	1100
2271.95	1145
2270.34	1121
2268.74	1144
2267.13	1120.5
2265.52	1154
2263.92	1126
2262.31	1130
2260.7	1126.5
2259.1	1081
2257.49	1074.5
2255.88	1115.5
2254.27	1107.5
2252.66	1117
2251.05	1081
2249.44	1062
2247.83	1135.5
2246.22	1047.5
2244.61	1069.5
2243	1089.5
2241.39	1099
2239.77	1100
2238.16	1036
2236.55	1029
2234.93	1029.5
2233.32	1057
2231.7	1037
2230.09	1033
2228.47	1024
2226.86	1059.5
2225.24	1019
2223.63	1074
2222.01	1053.5
2220.39	1008
2218.77	1021.5
2217.16	1053.5
2215.54	1040.5
2213.92	1005.5
2212.3	988.5
2210.68	982.5
2209.06	995.5
2207.44	1019
2205.82	1008.5
2204.19	1002.5
2202.57	966.5
2200.95	1018
2199.33	990.5
2197.7	950
2196.08	975.5
2194.46	969.5
2192.83	966
2191.21	980
2189.58	971
2187.96	933
2186.33	966
2184.7	975.5
2183.08	973.5
2181.45	927
2179.82	944
2178.19	939
2176.57	938
2174.94	900
2173.31	943
2171.68	930
2170.05	936
2168.42	938
2166.79	904.5
2165.16	928.5
2163.52	898
2161.89	912.5
2160.26	930
2158.63	933
2156.99	878
2155.36	908
2153.73	921
2152.09	933
2150.46	913
2148.82	909
2147.18	890.5
2145.55	889
2143.91	859
2142.27	853.5
2140.64	899
2139	892
2137.36	874
2135.72	869.5
2134.08	829
2132.44	843
2130.8	856
2129.16	828.5
2127.52	850
2125.88	827
2124.24	802
2122.6	837
2120.95	846.5
2119.31	802
2117.67	832
2116.02	791
2114.38	805.5
2112.74	814
2111.09	819.5
2109.45	814
2107.8	832
2106.15	788
2104.51	792
2102.86	775.5
2101.21	795.5
2099.56	784.5
2097.92	781.5
2096.27	787
2094.62	793.5
2092.97	790.5
2091.32	813
2089.67	783
2088.02	753.5
2086.37	783
2084.72	776.5
2083.06	763
2081.41	741
2079.76	718
2078.1	752.5
2076.45	762
2074.8	722.5
2073.14	744.5
2071.49	746
2069.83	782
2068.18	744
2066.52	738.5
2064.86	718.5
2063.21	721.5
2061.55	723
2059.89	770.5
2058.23	741
2056.57	724
2054.92	718
2053.26	745.5
2051.6	675
2049.94	708
2048.27	669
2046.61	719.5
2044.95	702
2043.29	702
2041.63	714.5
2039.97	729
2038.3	697
2036.64	709
2034.97	670
2033.31	704
2031.64	712.5
2029.98	715.5
2028.31	703
2026.65	686
2024.98	684.5
2023.31	693
2021.65	660.5
2019.98	678
2018.31	679.5
2016.64	646
2014.97	657
2013.3	692
2011.63	656
2009.96	660
2008.29	630
2006.62	627.5
2004.95	661
2003.28	677
2001.6	665
1999.93	640.5
1998.26	645
1996.58	662
1994.91	616.5
1993.24	649
1991.56	684
1989.89	667
1988.21	628
1986.53	612
1984.86	649
1983.18	617.5
1981.5	611.5
1979.82	648
1978.15	649
1976.47	616.5
1974.79	637.5
1973.11	582
1971.43	601
1969.75	614.5
1968.07	603
1966.38	615
1964.7	617.5
1963.02	609.5
1961.34	618
1959.66	594
1957.97	584
1956.29	616.5
1954.6	636
1952.92	577
1951.23	559.5
1949.55	561
1947.86	594
1946.18	584.5
1944.49	592
1942.8	579
1941.11	566.5
1939.43	599
1937.74	580
1936.05	611.5
1934.36	574
1932.67	571
1930.98	574
1929.29	536
1927.6	555
1925.91	565
1924.21	535
1922.52	540.5
1920.83	545.5
1919.14	524.5
1917.44	559
1915.75	555.5
1914.05	549
1912.36	530
1910.66	537.5
1908.97	551
1907.27	501.5
1905.58	535
1903.88	515
1902.18	501
1900.48	508.5
1898.79	516
1897.09	547.5
1895.39	525
1893.69	498.5
1891.99	522
1890.29	520
1888.59	501
1886.89	502
1885.18	515.5
1883.48	513.5
1881.78	477.5
1880.08	510.5
1878.37	470
1876.67	503.5
1874.96	491
1873.26	468
1871.55	497
1869.85	500.5
1868.14	500.5
1866.44	487
1864.73	458
1863.02	422
1861.32	477
1859.61	479
1857.9	456
1856.19	437.5
1854.48	434
1852.77	468.5
1851.06	449.5
1849.35	459.5
1847.64	459.5
1845.93	450.5
1844.21	445.5
1842.5	468
1840.79	475.5
1839.08	466
1837.36	435.5
1835.65	442
1833.93	431.5
1832.22	435.5
1830.5	409
1828.79	449
1827.07	427
1825.36	399
1823.64	454
1821.92	442
1820.2	419.5
1818.48	434.5
1816.77	427
1815.05	450.5
1813.33	401
1811.61	443.5
1809.89	424
1808.16	443
1806.44	415
1804.72	408.5
1803	431
1801.28	433.5
1799.55	404.5
1797.83	391.5
1796.11	423.5
1794.38	409
1792.66	432.5
1790.93	406.5
1789.21	441
1787.48	418
1785.75	412
1784.03	383
1782.3	404
1780.57	378.5
1778.84	379
1777.11	391
1775.38	406.5
1773.66	404.5
1771.93	407.5
1770.19	394
1768.46	399.5
1766.73	397
1765	443
1763.27	401
1761.54	433
1759.8	420.5
1758.07	433
1756.34	405
1754.6	434
1752.87	446
1751.13	457
1749.4	451
1747.66	481.5
1745.92	445.5
1744.19	447
1742.45	426
1740.71	466.5
1738.97	412
1737.23	411
1735.49	415.5
1733.75	400.5
1732.01	381.5
1730.27	413
1728.53	372
1726.79	376
1725.05	380
1723.31	385.5
1721.57	376.5
1719.82	370
1718.08	394
1716.34	385
1714.59	353
1712.85	387
1711.1	371
1709.36	370.5
1707.61	359.5
1705.86	366
1704.12	387
1702.37	348
1700.62	370.5
1698.87	345.5
1697.12	351
1695.37	331
1693.62	373.5
1691.87	372.5
1690.12	378.5
1688.37	344
1686.62	377
1684.87	375.5
1683.12	369.5
1681.36	333.5
1679.61	401
1677.86	378
1676.1	392.5
1674.35	416
1672.59	421.5
1670.84	460
1669.08	466
1667.33	541
1665.57	554
1663.81	626
1662.06	678.5
1660.3	708
1658.54	709
1656.78	689
1655.02	667
1653.26	608
1651.5	615.5
1649.74	543
1647.98	508
1646.22	453
1644.46	424
1642.7	422.5
1640.93	392.5
1639.17	396
1637.41	387
1635.64	385
1633.88	344.5
1632.11	353
1630.35	344
1628.58	327
1626.81	338
1625.05	327
1623.28	321
1621.51	318
1619.75	332.5
1617.98	321
1616.21	299
1614.44	303.5
1612.67	325
1610.9	304
1609.13	333
1607.36	316.5
1605.58	319
1603.81	314
1602.04	305.5
1600.27	306
1598.49	317.5
1596.72	293
1594.95	317
1593.17	323
1591.4	305
1589.62	299
1587.84	298
1586.07	320.5
1584.29	314
1582.51	296
1580.74	311
1578.96	302
1577.18	326.5
1575.4	274
1573.62	288
1571.84	314.5
1570.06	309
1568.28	304.5
1566.5	297
1564.72	287
1562.93	325
1561.15	328
1559.37	302
1557.58	354
1555.8	312
1554.02	309
1552.23	323.5
1550.45	302
1548.66	305
1546.87	328.5
1545.09	303
1543.3	305
1541.51	287.5
1539.72	290.5
1537.94	287
1536.15	270
1534.36	300.5
1532.57	290
1530.78	281
1528.99	311.5
1527.2	307.5
1525.4	298.5
1523.61	307.5
1521.82	299.5
1520.03	310
1518.23	299
1516.44	292
1514.65	287
1512.85	307.5
1511.06	315
1509.26	299.5
1507.46	307
1505.67	270
1503.87	311
1502.07	328
1500.28	330.5
1498.48	284
1496.68	333
1494.88	320
1493.08	346.5
1491.28	336.5
1489.48	320
1487.68	340
1485.88	374
1484.08	377
1482.27	400
1480.47	398
1478.67	406.5
1476.86	442.5
1475.06	433
1473.25	492
1471.45	498.5
1469.64	550
1467.84	600.5
1466.03	617
1464.23	630
1462.42	691
1460.61	703
1458.8	780.5
1456.99	804
1455.18	821
1453.37	812
1451.56	862
1449.75	906
1447.94	949
1446.13	969
1444.32	972
1442.51	1068
1440.7	993
1438.88	942
1437.07	915
1435.26	808
1433.44	736
1431.63	654
1429.81	619
1427.99	562
1426.18	490
1424.36	478.5
1422.54	413
1420.73	464
1418.91	437
1417.09	401
1415.27	366
1413.45	389
1411.63	332
1409.81	351.5
1407.99	367
1406.17	337.5
1404.35	343
1402.53	332
1400.7	371.5
1398.88	337.5
1397.06	333
1395.23	322.5
1393.41	330
1391.58	295
1389.76	303.5
1387.93	333.5
1386.11	314
1384.28	311
1382.45	319
1380.62	330
1378.8	363
1376.97	333
1375.14	314
1373.31	331.5
1371.48	319
1369.65	340.5
1367.82	331.5
1365.99	364
1364.16	333
1362.32	340
1360.49	317
1358.66	331.5
1356.82	319
1354.99	353
1353.16	359
1351.32	350.5
1349.48	368
1347.65	372
1345.81	369.5
1343.98	352
1342.14	353
1340.3	366
1338.46	390
1336.62	372
1334.79	362
1332.95	383.5
1331.11	399
1329.27	391
1327.42	456
1325.58	418
1323.74	440
1321.9	479
1320.06	502
1318.21	529
1316.37	501
1314.53	558
1312.68	648
1310.84	665
1308.99	671
1307.15	747.5
1305.3	743
1303.45	768
1301.61	770
1299.76	775
1297.91	702
1296.06	668
1294.21	654
1292.36	589
1290.51	584
1288.66	604.5
1286.81	561.5
1284.96	547
1283.11	529
1281.26	550
1279.4	576
1277.55	539
1275.7	576
1273.84	627.5
1271.99	613
1270.13	634
1268.28	651
1266.42	624
1264.56	642
1262.71	635.5
1260.85	641
1258.99	576
1257.13	554
1255.27	537
1253.41	526
1251.56	513
1249.7	471.5
1247.83	397
1245.97	431
1244.11	427
1242.25	410
1240.39	375.5
1238.52	377.5
1236.66	377.5
1234.8	377.5
1232.93	360
1231.07	324
1229.2	317
1227.34	336
1225.47	331
1223.6	292
1221.74	334
1219.87	303
1218	310
1216.13	314.5
1214.26	296
1212.39	297
1210.53	316
1208.65	295.5
1206.78	289
1204.91	295
1203.04	303.5
1201.17	314.5
1199.3	315
1197.42	296
1195.55	298.5
1193.68	294
1191.8	321.5
1189.93	271
1188.05	316
1186.17	294
1184.3	277
1182.42	311.5
1180.54	284.5
1178.67	281
1176.79	336.5
1174.91	283
1173.03	285
1171.15	336.5
1169.27	282
1167.39	287
1165.51	313
1163.63	291
1161.75	282
1159.86	299
1157.98	300
1156.1	292
1154.21	319
1152.33	311
1150.44	297.5
1148.56	284
1146.67	300
1144.79	296
1142.9	314.5
1141.01	322
1139.12	321
1137.24	318.5
1135.35	344
1133.46	348.5
1131.57	339
1129.68	387.5
1127.79	385
1125.9	388.5
1124.01	414
1122.12	369
1120.22	411.5
1118.33	408
1116.44	434.5
1114.54	397
1112.65	389.5
1110.75	424
1108.86	420
1106.96	449.5
1105.07	456.5
1103.17	423
1101.27	476.5
1099.38	432
1097.48	518
1095.58	486
1093.68	510
1091.78	553.5
1089.88	520
1087.98	595
1086.08	599
1084.18	611
1082.28	601
1080.38	642
1078.47	613
1076.57	606
1074.67	595
1072.76	563.5
1070.86	570
1068.95	552
1067.05	592.5
1065.14	610
1063.24	578.5
1061.33	531
1059.42	532.5
1057.51	505.5
1055.6	466.5
1053.7	453
1051.79	422
1049.88	467
1047.97	438
1046.06	441
1044.14	405
1042.23	425
1040.32	434
1038.41	423
1036.5	429
1034.58	401
1032.67	434.5
1030.75	433
1028.84	424
1026.92	431
1025.01	425
1023.09	450
1021.17	454
1019.26	426
1017.34	425
1015.42	440
1013.5	454
1011.58	369.5
1009.66	403
1007.74	405
1005.82	391
1003.9	367
1001.98	405
1000.06	402.5
998.134	374
996.212	408
994.288	393.5
992.364	402.5
990.44	390
988.515	414.5
986.589	430.5
984.663	455
982.737	466
980.81	491.5
978.883	493
976.955	525
975.027	530
973.098	533
971.169	529
969.239	556
967.308	541
965.378	537
963.447	498
961.516	500
959.583	515.5
957.65	542.5
955.718	497.5
953.784	535
951.85	508
949.916	494
947.981	559
946.045	560
944.109	530
942.173	518
940.236	537
938.298	562.5
936.36	527
934.422	523
932.484	527
930.544	504
928.604	503
926.664	494
924.724	482
922.782	517
920.84	496.5
918.898	509
916.955	508.5
915.012	474
913.068	492
911.124	519.5
909.18	500
907.235	520.5
905.289	490.5
903.343	503.5
901.397	500
899.45	462
897.502	507
895.554	517.5
893.605	530
891.657	526
889.707	551
887.758	533
885.807	518
883.856	533
881.905	554.5
879.953	551
878.001	569.5
876.048	597
874.094	576
872.14	588
870.186	581
868.232	576
866.276	590
864.321	575.5
862.365	556
860.408	549.5
858.451	582
856.493	544
854.535	564
852.576	548
850.617	524
848.658	534.5
846.698	547
844.737	561
842.776	544
840.814	525.5
838.852	540
836.89	536
834.927	519
832.963	480
830.999	467.5
829.035	503
827.07	428
825.105	432.5
823.139	436.5
821.172	416
819.206	407.5
817.238	400.5
815.27	381.5
813.301	389
811.333	366.5
809.363	383
807.394	366.5
805.424	361.5
803.453	339
801.482	335
799.509	323.5
797.538	334
795.565	333
793.592	328
791.618	320
789.643	332.5
787.669	298
785.693	319
783.718	303
781.742	302
779.765	310
777.788	329
775.811	315.5
773.832	332.5
771.853	325
769.875	329
767.895	303
765.915	298
763.934	345
761.953	320
759.972	320.5
757.99	277
756.007	309
754.024	299.5
752.041	314.5
750.056	324
748.072	320
746.087	305
744.102	314
742.116	354
740.13	319.5
738.143	332
736.155	334.5
734.167	347
732.179	352.5
730.19	350
728.2	347.5
726.21	354
724.22	347.5
722.229	362.5
720.237	367
718.246	351
716.253	332
714.26	325.5
712.267	322
710.273	348
708.279	340
706.284	306
704.289	304.5
702.293	319.5
700.296	346
698.3	300.5
696.303	297
694.305	286
692.307	329.5
690.307	309
688.308	272.5
686.309	285.5
684.308	316.5
682.308	309.5
680.306	295.5
678.304	317
676.302	329.5
674.3	282.5
672.296	330
670.293	309
668.289	319.5
666.284	312.5
664.278	320.5
662.273	324
660.266	309
658.26	303
656.252	325
654.244	334.5
652.237	304
650.227	331
648.218	353.5
646.209	264
644.198	276
642.188	337
640.177	352
638.165	308
636.153	334
634.14	334
632.128	329
630.113	358
628.099	346.5
626.085	331
624.07	355.5
622.054	361.5
620.038	321
618.021	368
616.004	346
613.986	364.5
611.968	325
609.949	359
607.93	351
605.911	362.5
603.891	367.5
601.87	388
599.848	369
597.827	381.5
595.805	375
593.782	371
591.759	360.5
589.735	354.5
587.711	342
585.687	356
583.661	368
581.636	383.5
579.609	341.5
577.583	343
575.555	397
573.527	339.5
571.5	348.5
569.471	369.5
567.441	371
565.412	340
563.382	383.5
561.351	384
559.32	344
557.289	378
555.257	374.5
553.223	402.5
551.19	388
549.157	374
547.122	403
545.088	431.5
543.053	431
541.017	449
538.981	488
536.943	516
534.907	554.5
532.869	639.5
530.831	854
528.792	1151.5
526.752	1730.5
524.713	2421.5
522.673	2922
520.632	2959
518.591	2492
516.549	1891
514.507	1384.5
512.464	993
510.42	753.5
508.377	658.5
506.332	539.5
504.288	520.5
502.242	510
500.196	466
498.15	476
496.104	477.5
494.056	483.5
492.008	472
489.96	462.5
487.911	455.5
485.862	455
483.812	451.5
481.761	435.5
479.71	505
477.659	426
475.607	443
473.555	446.5
471.502	427
469.448	459
467.395	460.5
465.34	454
463.285	483
461.23	420
459.174	434
457.118	443.5
455.061	450.5
453.003	459.5
450.945	431.5
448.887	447.5
446.828	446
444.768	449.5
442.708	475
440.647	461.5
438.587	488
436.525	485
434.463	452
432.4	453
430.337	475
428.274	459.5
426.21	465.5
424.145	458
422.079	495
420.014	466
417.948	499
415.882	457
413.814	492
411.746	475
409.679	495.5
407.609	513
405.54	515
403.47	493
401.401	498
399.329	504.5
397.258	501.5
395.187	469
393.114	502
391.041	463
388.968	487
386.895	503
384.82	473.5
382.745	490
380.67	515
378.594	491.5
376.517	523.5
374.44	519
372.363	524
370.286	525
368.207	553
366.128	478
364.049	512.5
361.969	526.5
359.888	506
357.807	501
355.725	520
353.643	541.5
351.561	548.5
349.477	569
347.394	556.5
345.31	524
343.226	534.5
341.141	549
339.055	515
336.968	550
334.882	498
332.795	535
330.707	584.5
328.618	549.5
326.53	554
324.44	584
322.351	601
320.26	575
318.17	637.5
316.078	587
313.987	596
311.895	619.5
309.802	661
307.708	669
305.614	674
303.52	670
301.425	694
299.329	708.5
297.233	680.5
295.137	657
293.039	667
290.942	661
288.844	657
286.745	668
284.647	662.5
282.546	669
280.446	681
278.346	675
276.245	650
274.143	701
272.041	679
269.939	716.5
267.835	729.5
265.731	705
263.627	737
261.522	738
259.417	721
257.311	695
255.204	732
253.098	778.5
250.99	734.5
248.882	776
246.774	771.5
244.664	738
242.555	776
240.445	812
238.334	809.5
236.223	826.5
234.112	811
232	811
229.888	817
227.775	838.5
225.661	839
223.546	824
221.431	847.5
219.316	856
217.201	829.5
215.084	868
212.967	860.5
210.85	865.5
208.732	880
206.614	894
204.495	878.5
202.375	884.5
200.256	909
198.135	875
196.014	881.5
193.893	905.5
191.771	902
189.648	889.5
187.525	905
185.401	873.5
183.277	877
181.152	908.5
179.027	884.5
176.901	884.5
174.775	914.5
172.648	933
170.521	919.5
168.393	905
166.265	930.5
164.136	955
162.007	978
159.876	976
157.746	1005.5
155.615	1009.5
153.483	1050
151.351	1049
149.219	1099.5
147.086	1115.5
144.952	1153.5
142.818	1173.5
140.684	1215.5
138.548	1255.5
136.413	1260
134.276	1301
132.139	1329
130.002	1408.5
127.864	1469.5
125.725	1471.5
123.587	1565
121.447	1621.5
119.307	1633.5
117.166	1715.5
115.026	1745
112.885	1896.5
110.743	1929.5
108.6	1967.5
106.456	2031.5
104.313	2039.5
102.169	2050.5
100.023	1961
97.8789	1880
95.7328	1740
93.5869	1551.5
91.4392	1305
89.2919	1099.5
87.1447	871
84.9959	672.5
