3528.51	124
3527.23	125.5
3525.95	153
3524.67	142
3523.39	149
3522.1	153
3520.82	141.5
3519.54	151
3518.26	153
3516.97	148
3515.69	152
3514.4	141
3513.12	151.5
3511.84	157
3510.55	159
3509.26	159
3507.98	162
3506.69	163
3505.41	168.5
3504.12	163
3502.83	160
3501.54	157
3500.26	165.5
3498.97	161
3497.68	186
3496.39	170
3495.1	188.5
3493.81	177.5
3492.52	187
3491.23	188.5
3489.94	201.5
3488.65	196.5
3487.36	199
3486.07	214
3484.78	205.5
3483.49	206
3482.19	202.5
3480.9	201
3479.61	218
3478.31	217.5
3477.02	226.5
3475.73	207
3474.43	231
3473.14	226.5
3471.84	237.5
3470.54	237.5
3469.25	234
3467.95	232
3466.66	221.5
3465.36	240.5
3464.06	240
3462.76	234
3461.46	251
3460.17	253
3458.87	247.5
3457.57	249
3456.27	259
3454.97	242
3453.67	250.5
3452.37	259.5
3451.07	262.5
3449.77	262.5
3448.47	269
3447.16	281
3445.86	272
3444.56	298
3443.26	286
3441.95	305
3440.65	302.5
3439.35	313
3438.04	306
3436.74	306
3435.43	306
3434.13	334
3432.82	343.5
3431.52	352.5
3430.21	352.5
3428.9	342
3427.6	361.5
3426.29	378
3424.98	369.5
3423.67	375.5
3422.36	383
3421.06	383
3419.75	392.5
3418.44	401.5
3417.13	399
3415.82	398
3414.51	394
3413.2	402.5
3411.88	410
3410.57	438
3409.26	416
3407.95	438.5
3406.64	421
3405.32	437
3404.01	433.5
3402.7	434
3401.38	444
3400.07	448
3398.75	446.5
3397.44	439
3396.12	455.5
3394.81	438.5
3393.49	463.5
3392.18	446
3390.86	464
3389.54	473
3388.23	477
3386.91	482
3385.59	476
3384.27	494
3382.95	497.5
3381.63	491.5
3380.31	493
3378.99	501
3377.67	500
3376.35	521
3375.03	536.5
3373.71	519
3372.39	529
3371.07	510.5
3369.75	520
3368.42	528
3367.1	542.5
3365.78	551
3364.45	535
3363.13	550
3361.81	545
3360.48	549.5
3359.16	577
3357.83	544.5
3356.51	575.5
3355.18	567.5
3353.85	584
3352.53	598
3351.2	565.5
3349.87	581.5
3348.54	581
3347.22	579.5
3345.89	598
3344.56	609
3343.23	589.5
3341.9	598.5
3340.57	592.5
3339.24	586.5
3337.91	605
3336.58	607
3335.25	615.5
3333.92	617
3332.58	599.5
3331.25	622.5
3329.92	613.5
3328.59	629.5
3327.25	630
3325.92	630
3324.58	627.5
3323.25	628
3321.92	640.5
3320.58	634
3319.25	645.5
3317.91	638
3316.57	644
3315.24	654
3313.9	632
3312.56	656
3311.23	661
3309.89	664
3308.55	670
3307.21	670
3305.87	672.5
3304.53	695
3303.19	683.5
3301.85	669
3300.51	686
3299.17	686.5
3297.83	710
3296.49	675
3295.15	712.5
3293.81	701.5
3292.46	711
3291.12	718.5
3289.78	712
3288.43	715.5
3287.09	722.5
3285.75	715
3284.4	714
3283.06	711.5
3281.71	727
3280.37	719.5
3279.02	743
3277.67	752
3276.33	743.5
3274.98	772.5
3273.63	747
3272.28	759
3270.94	769.5
3269.59	762
3268.24	796.5
3266.89	804.5
3265.54	811
3264.19	816.5
3262.84	818.5
3261.49	831
3260.14	875
3258.79	868
3257.44	898
3256.08	903
3254.73	930.5
3253.38	967.5
3252.03	975.5
3250.67	977
3249.32	1008.5
3247.96	1032
3246.61	1078.5
3245.26	1100.5
3243.9	1137.5
3242.54	1138
3241.19	1184.5
3239.83	1205
3238.48	1257
3237.12	1259.5
3235.76	1309.5
3234.41	1339.5
3233.05	1348.5
3231.69	1402.5
3230.33	1404.5
3228.97	1410
3227.61	1449.5
3226.25	1497
3224.89	1511
3223.53	1545
3222.17	1556.5
3220.81	1578
3219.45	1589.5
3218.09	1590
3216.72	1644.5
3215.36	1642.5
3214	1635.5
3212.63	1657.5
3211.27	1687
3209.91	1688
3208.54	1675.5
3207.18	1702
3205.81	1691
3204.45	1725.5
3203.08	1745.5
3201.71	1754
3200.35	1714
3198.98	1746
3197.61	1756.5
3196.25	1793.5
3194.88	1798.5
3193.51	1815.5
3192.14	1816
3190.77	1813.5
3189.4	1836
3188.03	1841.5
3186.66	1851.5
3185.29	1860.5
3183.92	1879.5
3182.55	1876.5
3181.18	1884
3179.81	1883
3178.44	1906.5
3177.06	1924
3175.69	1931
3174.32	1959
3172.94	1956
3171.57	2026
3170.2	1952.5
3168.82	2009
3167.45	1980
3166.07	2044
3164.69	2064.5
3163.32	2061
3161.94	2083
3160.56	2129
3159.19	2100.5
3157.81	2122
3156.43	2150.5
3155.05	2143
3153.67	2167.5
3152.3	2218.5
3150.92	2204
3149.54	2228
3148.16	2229.5
3146.78	2259
3145.4	2273.5
3144.01	2250
3142.63	2318
3141.25	2316.5
3139.87	2328
3138.49	2375
3137.1	2353.5
3135.72	2380
3134.34	2389
3132.95	2420.5
3131.57	2454.5
3130.18	2423.5
3128.8	2475
3127.41	2477
3126.03	2493.5
3124.64	2476.5
3123.25	2526.5
3121.87	2511
3120.48	2566.5
3119.09	2537
3117.7	2564
3116.32	2584.5
3114.93	2570
3113.54	2639
3112.15	2621
3110.76	2643.5
3109.37	2636.5
3107.98	2655
3106.59	2678.5
3105.2	2644.5
3103.8	2662.5
3102.41	2681
3101.02	2706
3099.63	2723.5
3098.23	2697
3096.84	2779.5
3095.45	2768.5
3094.05	2786
3092.66	2793
3091.26	2804
3089.87	2810
3088.47	2837.5
3087.08	2849
3085.68	2823
3084.28	2819.5
3082.89	2882
3081.49	2891
3080.09	2867
3078.69	2897.5
3077.3	2843.5
3075.9	2863
3074.5	2898.5
3073.1	2894.5
3071.7	2909
3070.3	2892
3068.9	2954.5
3067.5	2946
3066.09	2941
3064.69	2954
3063.29	2917.5
3061.89	3025
3060.48	3006
3059.08	2995
3057.68	3000.5
3056.27	3005.5
3054.87	2994
3053.46	2988.5
3052.06	3022
3050.65	3008.5
3049.25	3070.5
3047.84	3097.5
3046.44	3066
3045.03	3038
3043.62	3088
3042.21	3101
3040.81	3087
3039.4	3107
3037.99	3137
3036.58	3122
3035.17	3146
3033.76	3129.5
3032.35	3126
3030.94	3133.5
3029.53	3158
3028.12	3167
3026.71	3166.5
3025.29	3190.5
3023.88	3168.5
3022.47	3141.5
3021.06	3193.5
3019.64	3184
3018.23	3159.5
3016.82	3219
3015.4	3207
3013.99	3180.5
3012.57	3193.5
3011.15	3234.5
3009.74	3239.5
3008.32	3232.5
3006.91	3272.5
3005.49	3231
3004.07	3257.5
3002.65	3287.5
3001.24	3319
2999.82	3319
2998.4	3320
2996.98	3333.5
2995.56	3332
2994.14	3345
2992.72	3392
2991.3	3372
2989.88	3425
2988.46	3441
2987.03	3445
2985.61	3485
2984.19	3507.5
2982.77	3525.5
2981.34	3534.5
2979.92	3530
2978.49	3533
2977.07	3551.5
2975.65	3569.5
2974.22	3627
2972.79	3666
2971.37	3628
2969.94	3620
2968.52	3667.5
2967.09	3697
2965.66	3653.5
2964.23	3682.5
2962.81	3732.5
2961.38	3723
2959.95	3713
2958.52	3756.5
2957.09	3717.5
2955.66	3776
2954.23	3770
2952.8	3766
2951.37	3756.5
2949.94	3779
2948.5	3792
2947.07	3789.5
2945.64	3781
2944.21	3832.5
2942.77	3854
2941.34	3851
2939.91	3896
2938.47	3831
2937.04	3882
2935.6	3934
2934.17	3879
2932.73	3874.5
2931.29	3968.5
2929.86	3981
2928.42	3963
2926.98	3940
2925.55	4026.5
2924.11	3985
2922.67	4053.5
2921.23	4004.5
2919.79	3992.5
2918.35	4042.5
2916.91	4047
2915.47	4093
2914.03	4035.5
2912.59	4023.5
2911.15	4041.5
2909.71	4051.5
2908.26	4077
2906.82	4075.5
2905.38	4100.5
2903.94	4096.5
2902.49	4102.5
2901.05	4077.5
2899.6	4084
2898.16	4155
2896.71	4114
2895.27	4091
2893.82	4144.5
2892.38	4170.5
2890.93	4141.5
2889.48	4179.5
2888.03	4095
2886.59	4138
2885.14	4150.5
2883.69	4139.5
2882.24	4099.5
2880.79	4149.5
2879.34	4163
2877.89	4164
2876.44	4173.5
2874.99	4185
2873.54	4155
2872.09	4165.5
2870.64	4171.5
2869.18	4152
2867.73	4200
2866.28	4161.5
2864.83	4159.5
2863.37	4155
2861.92	4200.5
2860.46	4185
2859.01	4187
2857.55	4193.5
2856.1	4194.5
2854.64	4241
2853.19	4201.5
2851.73	4205
2850.27	4146
2848.81	4208.5
2847.36	4193.5
2845.9	4169
2844.44	4202
2842.98	4180.5
2841.52	4190.5
2840.06	4158.5
2838.6	4120
2837.14	4108
2835.68	4082.5
2834.22	4076
2832.76	4101
2831.3	4037
2829.83	4056.5
2828.37	4059.5
2826.91	4062.5
2825.44	4054
2823.98	4016.5
2822.52	4023.5
2821.05	4074.5
2819.59	4022.5
2818.12	4018.5
2816.66	3991
2815.19	4001
2813.72	4009
2812.26	3972
2810.79	4009
2809.32	4000.5
2807.85	3946
2806.38	3975
2804.92	3952
2803.45	3919
2801.98	3983
2800.51	3994
2799.04	3964.5
2797.57	3953.5
2796.1	3967.5
2794.62	3935
2793.15	3948.5
2791.68	3946
2790.21	3984
2788.73	3967
2787.26	3941
2785.79	3994
2784.31	3948
2782.84	3920.5
2781.36	4010
2779.89	3987
2778.41	3989.5
2776.94	3992.5
2775.46	4015.5
2773.99	4006.5
2772.51	4046.5
2771.03	4048
2769.55	4004
2768.07	4070
2766.6	4075.5
2765.12	4058.5
2763.64	4073.5
2762.16	4063
2760.68	4063
2759.2	4061
2757.72	4106.5
2756.24	4095
2754.75	4068
2753.27	4092
2751.79	4079
2750.31	4098
2748.82	4119.5
2747.34	4044.5
2745.86	4059.5
2744.37	4057
2742.89	4050
2741.4	4094
2739.92	4081
2738.43	4039.5
2736.94	4013.5
2735.46	4058
2733.97	4014
2732.48	3994
2731	4035
2729.51	4038.5
2728.02	4010
2726.53	4003.5
2725.04	4023
2723.55	3996
2722.06	4014
2720.57	4005.5
2719.08	3993.5
2717.59	3991.5
2716.1	3975.5
2714.61	4019.5
2713.11	4020
2711.62	4008
2710.13	4017.5
2708.64	4028.5
2707.14	4033.5
2705.65	3989
2704.15	3975
2702.66	3943.5
2701.16	3990
2699.67	3945
2698.17	3958
2696.67	3996.5
2695.18	3998
2693.68	3955.5
2692.18	3964
2690.69	3921
2689.19	3936
2687.69	3899.5
2686.19	3902.5
2684.69	3891
2683.19	3890
2681.69	3898.5
2680.19	3859.5
2678.69	3875.5
2677.19	3905.5
2675.68	3852.5
2674.18	3826.5
2672.68	3843.5
2671.18	3851
2669.67	3830.5
2668.17	3843.5
2666.66	3847.5
2665.16	3839
2663.66	3834.5
2662.15	3837.5
2660.64	3823
2659.14	3805
2657.63	3819
2656.13	3844.5
2654.62	3786
2653.11	3799
2651.6	3839
2650.09	3789.5
2648.58	3792
2647.08	3786
2645.57	3780.5
2644.06	3809.5
2642.55	3799
2641.04	3772
2639.52	3756
2638.01	3729
2636.5	3701
2634.99	3779
2633.48	3658.5
2631.96	3669
2630.45	3692.5
2628.94	3692.5
2627.42	3687
2625.91	3673.5
2624.39	3677.5
2622.88	3657.5
2621.36	3619.5
2619.85	3620.5
2618.33	3659
2616.81	3689
2615.3	3628.5
2613.78	3691
2612.26	3633
2610.74	3649.5
2609.22	3660
2607.7	3646
2606.18	3615
2604.66	3594.5
2603.14	3633
2601.62	3604
2600.1	3576
2598.58	3546
2597.06	3546
2595.54	3527.5
2594.01	3552.5
2592.49	3505
2590.97	3476.5
2589.44	3495
2587.92	3485
2586.39	3508
2584.87	3508.5
2583.34	3474.5
2581.82	3501.5
2580.29	3459.5
2578.76	3490
2577.24	3437
2575.71	3446
2574.18	3481.5
2572.65	3452.5
2571.13	3463
2569.6	3488.5
2568.07	3472.5
2566.54	3433.5
2565.01	3434.5
2563.48	3435
2561.95	3439.5
2560.42	3458.5
2558.88	3417.5
2557.35	3415
2555.82	3385.5
2554.29	3430
2552.75	3383.5
2551.22	3393
2549.69	3367
2548.15	3329
2546.62	3381.5
2545.08	3349
2543.55	3378
2542.01	3327.5
2540.47	3322
2538.94	3295
2537.4	3277.5
2535.86	3246
2534.33	3288
2532.79	3295
2531.25	3261.5
2529.71	3262
2528.17	3221
2526.63	3235.5
2525.09	3233
2523.55	3236
2522.01	3205
2520.47	3200.5
2518.92	3228
2517.38	3201
2515.84	3193
2514.3	3175
2512.75	3169
2511.21	3151.5
2509.67	3143.5
2508.12	3152.5
2506.58	3137.5
2505.03	3133
2503.49	3124
2501.94	3082
2500.39	3062
2498.85	3072
2497.3	3076
2495.75	3089.5
2494.2	3055
2492.65	3064.5
2491.11	3026.5
2489.56	3028.5
2488.01	2981
2486.46	3045
2484.91	2984.5
2483.36	3018
2481.8	2986.5
2480.25	2998
2478.7	2991
2477.15	2945
2475.6	2955
2474.04	2942.5
2472.49	2915.5
2470.93	2910.5
2469.38	2902
2467.83	2905
2466.27	2901.5
2464.71	2837.5
2463.16	2891
2461.6	2837.5
2460.05	2859
2458.49	2848
2456.93	2826.5
2455.37	2831.5
2453.81	2823
2452.26	2821.5
2450.7	2789
2449.14	2779
2447.58	2793
2446.02	2752
2444.46	2752
2442.9	2740
2441.33	2753
2439.77	2729.5
2438.21	2719
2436.65	2729
2435.08	2688
2433.52	2714.5
2431.96	2723.5
2430.39	2689
2428.83	2682.5
2427.26	2702
2425.7	2670
2424.13	2663.5
2422.56	2677
2421	2644.5
2419.43	2641
2417.86	2670.5
2416.3	2658.5
2414.73	2647
2413.16	2655.5
2411.59	2636.5
2410.02	2617.5
2408.45	2610
2406.88	2619.5
2405.31	2601
2403.74	2615.5
2402.17	2568
2400.6	2594
2399.02	2569.5
2397.45	2612
2395.88	2585
2394.3	2560
2392.73	2566.5
2391.16	2540
2389.58	2558.5
2388.01	2562
2386.43	2547
2384.86	2527
2383.28	2538.5
2381.7	2560.5
2380.13	2537.5
2378.55	2520.5
2376.97	2524
2375.39	2515.5
2373.81	2545
2372.23	2470
2370.65	2480
2369.07	2516
2367.49	2498.5
2365.91	2494.5
2364.33	2470.5
2362.75	2481.5
2361.17	2482
2359.59	2504
2358.01	2488.5
2356.42	2486.5
2354.84	2466.5
2353.25	2474.5
2351.67	2439.5
2350.09	2432.5
2348.5	2454
2346.92	2448.5
2345.33	2426.5
2343.74	2421.5
2342.16	2447.5
2340.57	2444.5
2338.98	2382.5
2337.39	2397
2335.81	2388.5
2334.22	2419
2332.63	2420
2331.04	2409
2329.45	2385
2327.86	2416.5
2326.27	2366
2324.68	2338
2323.09	2375
2321.49	2320.5
2319.9	2339.5
2318.31	2310.5
2316.72	2313.5
2315.12	2313
2313.53	2292.5
2311.93	2283.5
2310.34	2307.5
2308.74	2279.5
2307.15	2292.5
2305.55	2270.5
2303.96	2216
2302.36	2260.5
2300.76	2228.5
2299.17	2240.5
2297.57	2226
2295.97	2208.5
2294.37	2204.5
2292.77	2216
2291.17	2177
2289.57	2175
2287.97	2201.5
2286.37	2183
2284.77	2202.5
2283.17	2180.5
2281.57	2176.5
2279.96	2210.5
2278.36	2186.5
2276.76	2134.5
2275.15	2129.5
2273.55	2152.5
2271.95	2119
2270.34	2115
2268.74	2119
2267.13	2115.5
2265.52	2088.5
2263.92	2081
2262.31	2082.5
2260.7	2093
2259.1	2049
2257.49	2083
2255.88	2078.5
2254.27	2009
2252.66	2023
2251.05	2044.5
2249.44	2029
2247.83	2032.5
2246.22	2044.5
2244.61	2010
2243	2039.5
2241.39	2017
2239.77	2011.5
2238.16	2019
2236.55	1999.5
2234.93	1987.5
2233.32	1974.5
2231.7	1996
2230.09	1975
2228.47	1938
2226.86	1948
2225.24	1929
2223.63	1903
2222.01	1921
2220.39	1916.5
2218.77	1908
2217.16	1897.5
2215.54	1931
2213.92	1898
2212.3	1884
2210.68	1882.5
2209.06	1862
2207.44	1867.5
2205.82	1905
2204.19	1889.5
2202.57	1852
2200.95	1847.5
2199.33	1848
2197.7	1872
2196.08	1851
2194.46	1836.5
2192.83	1817
2191.21	1816.5
2189.58	1820.5
2187.96	1799.5
2186.33	1828
2184.7	1816
2183.08	1793.5
2181.45	1836
2179.82	1798
2178.19	1763
2176.57	1794.5
2174.94	1801.5
2173.31	1773
2171.68	1779
2170.05	1727
2168.42	1749
2166.79	1790.5
2165.16	1752
2163.52	1749
2161.89	1746
2160.26	1707
2158.63	1734
2156.99	1720.5
2155.36	1718
2153.73	1738.5
2152.09	1704
2150.46	1689
2148.82	1692
2147.18	1678.5
2145.55	1683
2143.91	1643.5
2142.27	1643.5
2140.64	1661.5
2139	1652.5
2137.36	1638.5
2135.72	1591
2134.08	1644
2132.44	1629
2130.8	1625.5
2129.16	1616.5
2127.52	1611.5
2125.88	1589
2124.24	1583
2122.6	1572
2120.95	1569.5
2119.31	1560.5
2117.67	1573
2116.02	1552
2114.38	1509.5
2112.74	1531.5
2111.09	1541
2109.45	1534.5
2107.8	1530.5
2106.15	1516
2104.51	1515
2102.86	1501
2101.21	1494
2099.56	1512
2097.92	1490.5
2096.27	1496.5
2094.62	1484
2092.97	1498
2091.32	1487.5
2089.67	1499.5
2088.02	1489.5
2086.37	1478
2084.72	1492
2083.06	1500.5
2081.41	1503
2079.76	1467
2078.1	1477.5
2076.45	1471.5
2074.8	1480
2073.14	1467.5
2071.49	1450
2069.83	1469
2068.18	1451.5
2066.52	1453
2064.86	1440
2063.21	1452.5
2061.55	1434.5
2059.89	1438.5
2058.23	1410.5
2056.57	1423.5
2054.92	1410
2053.26	1409
2051.6	1420.5
2049.94	1406.5
2048.27	1380
2046.61	1401
2044.95	1398.5
2043.29	1364.5
2041.63	1373
2039.97	1383
2038.3	1358
2036.64	1336
2034.97	1343
2033.31	1346
2031.64	1346
2029.98	1332.5
2028.31	1312
2026.65	1319.5
2024.98	1279.5
2023.31	1325
2021.65	1312
2019.98	1287
2018.31	1305
2016.64	1295.5
2014.97	1296.5
2013.3	1275
2011.63	1273
2009.96	1282.5
2008.29	1286
2006.62	1249
2004.95	1254
2003.28	1263.5
2001.6	1255
1999.93	1261
1998.26	1254.5
1996.58	1237
1994.91	1250.5
1993.24	1240.5
1991.56	1213.5
1989.89	1231
1988.21	1227.5
1986.53	1230.5
1984.86	1239
1983.18	1194.5
1981.5	1217.5
1979.82	1214.5
1978.15	1201
1976.47	1188.5
1974.79	1168
1973.11	1205
1971.43	1178.5
1969.75	1165
1968.07	1171.5
1966.38	1174.5
1964.7	1166.5
1963.02	1166
1961.34	1197.5
1959.66	1170.5
1957.97	1151
1956.29	1161
1954.6	1179
1952.92	1166
1951.23	1163
1949.55	1171.5
1947.86	1129
1946.18	1157.5
1944.49	1119.5
1942.8	1146
1941.11	1134
1939.43	1119
1937.74	1108.5
1936.05	1117
1934.36	1102
1932.67	1107
1930.98	1088
1929.29	1081
1927.6	1093
1925.91	1067.5
1924.21	1091.5
1922.52	1085.5
1920.83	1080
1919.14	1081
1917.44	1082
1915.75	1059.5
1914.05	1058
1912.36	1045.5
1910.66	1064.5
1908.97	1048.5
1907.27	1066.5
1905.58	1047
1903.88	1049
1902.18	1030.5
1900.48	1042.5
1898.79	1034
1897.09	1011
1895.39	1037.5
1893.69	1024.5
1891.99	994.5
1890.29	990
1888.59	996
1886.89	992.5
1885.18	989.5
1883.48	990.5
1881.78	988
1880.08	983
1878.37	966
1876.67	965.5
1874.96	983
1873.26	934
1871.55	964
1869.85	964.5
1868.14	956.5
1866.44	936.5
1864.73	937
1863.02	950
1861.32	948.5
1859.61	946
1857.9	953
1856.19	922.5
1854.48	952
1852.77	922
1851.06	920.5
1849.35	935.5
1847.64	919
1845.93	937.5
1844.21	918.5
1842.5	910
1840.79	937
1839.08	926
1837.36	904
1835.65	909
1833.93	901
1832.22	891.5
1830.5	887
1828.79	883
1827.07	894
1825.36	873
1823.64	846.5
1821.92	843
1820.2	864
1818.48	828
1816.77	866
1815.05	877.5
1813.33	840
1811.61	882.5
1809.89	869
1808.16	851
1806.44	847
1804.72	866.5
1803	861.5
1801.28	837.5
1799.55	845
1797.83	824.5
1796.11	838.5
1794.38	861
1792.66	842
1790.93	827
1789.21	841.5
1787.48	823.5
1785.75	836
1784.03	817
1782.3	831
1780.57	815.5
1778.84	819
1777.11	810
1775.38	831.5
1773.66	831.5
1771.93	817
1770.19	827.5
1768.46	816
1766.73	827
1765	792.5
1763.27	822
1761.54	828.5
1759.8	845.5
1758.07	858.5
1756.34	867
1754.6	843.5
1752.87	865
1751.13	861
1749.4	858
1747.66	842.5
1745.92	853
1744.19	840
1742.45	842.5
1740.71	815.5
1738.97	839.5
1737.23	822
1735.49	812.5
1733.75	816.5
1732.01	791.5
1730.27	812
1728.53	804.5
1726.79	795.5
1725.05	813
1723.31	783.5
1721.57	780
1719.82	778
1718.08	779
1716.34	767
1714.59	765.5
1712.85	778
1711.1	757
1709.36	758
1707.61	774
1705.86	768
1704.12	767
1702.37	767
1700.62	739
1698.87	751.5
1697.12	748
1695.37	742.5
1693.62	734
1691.87	745.5
1690.12	745.5
1688.37	752
1686.62	750
1684.87	751
1683.12	724.5
1681.36	753
1679.61	765
1677.86	755.5
1676.1	743.5
1674.35	763.5
1672.59	772
1670.84	774
1669.08	798
1667.33	811.5
1665.57	847
1663.81	859.5
1662.06	894.5
1660.3	923.5
1658.54	921
1656.78	949
1655.02	895.5
1653.26	885
1651.5	862
1649.74	837
1647.98	831.5
1646.22	801
1644.46	788
1642.7	758.5
1640.93	754
1639.17	737
1637.41	743
1635.64	731.5
1633.88	727.5
1632.11	708
1630.35	713.5
1628.58	705.5
1626.81	695.5
1625.05	698.5
1623.28	715.5
1621.51	709.5
1619.75	691.5
1617.98	674
1616.21	694.5
1614.44	672
1612.67	683.5
1610.9	674
1609.13	680.5
1607.36	689
1605.58	695.5
1603.81	681
1602.04	680
1600.27	693
1598.49	706.5
1596.72	682.5
1594.95	689.5
1593.17	671
1591.4	682.5
1589.62	682.5
1587.84	687
1586.07	683.5
1584.29	701
1582.51	662.5
1580.74	672.5
1578.96	672
1577.18	684.5
1575.4	676
1573.62	677
1571.84	674
1570.06	678
1568.28	675
1566.5	676
1564.72	664
1562.93	667
1561.15	656
1559.37	667.5
1557.58	675
1555.8	651.5
1554.02	660.5
1552.23	661
1550.45	656.5
1548.66	651
1546.87	639
1545.09	640
1543.3	667.5
1541.51	639
1539.72	653.5
1537.94	627.5
1536.15	652.5
1534.36	657.5
1532.57	647.5
1530.78	629.5
1528.99	644
1527.2	642
1525.4	654
1523.61	632.5
1521.82	643.5
1520.03	642
1518.23	662
1516.44	653
1514.65	655.5
1512.85	645
1511.06	633
1509.26	659.5
1507.46	669.5
1505.67	657.5
1503.87	644
1502.07	668.5
1500.28	662
1498.48	664
1496.68	664
1494.88	670
1493.08	667.5
1491.28	678.5
1489.48	680
1487.68	694.5
1485.88	677.5
1484.08	677.5
1482.27	707
1480.47	716
1478.67	720.5
1476.86	745.5
1475.06	740
1473.25	774
1471.45	790
1469.64	821
1467.84	829.5
1466.03	860
1464.23	889
1462.42	900.5
1460.61	944.5
1458.8	967.5
1456.99	973
1455.18	1013.5
1453.37	1007
1451.56	1020
1449.75	1040
1447.94	1046.5
1446.13	1089.5
1444.32	1092
1442.51	1101.5
1440.7	1133.5
1438.88	1118
1437.07	1085
1435.26	1003.5
1433.44	986
1431.63	909.5
1429.81	851
1427.99	837
1426.18	794
1424.36	759
1422.54	749.5
1420.73	767
1418.91	724.5
1417.09	716.5
1415.27	720.5
1413.45	684.5
1411.63	690.5
1409.81	690.5
1407.99	696.5
1406.17	690
1404.35	683.5
1402.53	674
1400.7	683.5
1398.88	674
1397.06	643.5
1395.23	676
1393.41	660
1391.58	647
1389.76	646
1387.93	670.5
1386.11	649
1384.28	676.5
1382.45	655.5
1380.62	651
1378.8	662
1376.97	648.5
1375.14	661.5
1373.31	675
1371.48	665.5
1369.65	667
1367.82	672.5
1365.99	668
1364.16	663.5
1362.32	654.5
1360.49	683.5
1358.66	668.5
1356.82	662
1354.99	670
1353.16	654
1351.32	662.5
1349.48	663.5
1347.65	673
1345.81	670.5
1343.98	674.5
1342.14	684.5
1340.3	692
1338.46	675
1336.62	672.5
1334.79	686
1332.95	710
1331.11	706
1329.27	754.5
1327.42	725.5
1325.58	748
1323.74	762.5
1321.9	783
1320.06	784.5
1318.21	798
1316.37	829
1314.53	854.5
1312.68	850
1310.84	899
1308.99	924.5
1307.15	948
1305.3	971.5
1303.45	983
1301.61	952.5
1299.76	958
1297.91	952.5
1296.06	904.5
1294.21	895
1292.36	863.5
1290.51	841.5
1288.66	819
1286.81	823
1284.96	803.5
1283.11	826
1281.26	816
1279.4	798
1277.55	835
1275.7	838
1273.84	828
1271.99	862.5
1270.13	854.5
1268.28	853
1266.42	834.5
1264.56	845
1262.71	860
1260.85	846
1258.99	814
1257.13	802.5
1255.27	775.5
1253.41	764.5
1251.56	768.5
1249.7	757
1247.83	754
1245.97	738
1244.11	740
1242.25	727.5
1240.39	721.5
1238.52	725.5
1236.66	705.5
1234.8	711.5
1232.93	696.5
1231.07	703
1229.2	693.5
1227.34	686
1225.47	681
1223.6	679
1221.74	677.5
1219.87	669
1218	698.5
1216.13	674
1214.26	680.5
1212.39	685.5
1210.53	668.5
1208.65	667.5
1206.78	661.5
1204.91	663
1203.04	667
1201.17	666.5
1199.3	664.5
1197.42	663.5
1195.55	665
1193.68	666.5
1191.8	674
1189.93	671.5
1188.05	674
1186.17	662.5
1184.3	666.5
1182.42	668.5
1180.54	655.5
1178.67	657.5
1176.79	669.5
1174.91	650.5
1173.03	666.5
1171.15	673
1169.27	678
1167.39	672
1165.51	685
1163.63	677.5
1161.75	677
1159.86	671.5
1157.98	671
1156.1	666
1154.21	679.5
1152.33	682
1150.44	697.5
1148.56	700.5
1146.67	693.5
1144.79	687.5
1142.9	692.5
1141.01	700
1139.12	709.5
1137.24	700.5
1135.35	721
1133.46	746.5
1131.57	724.5
1129.68	743
1127.79	757
1125.9	778
1124.01	775
1122.12	786
1120.22	784
1118.33	780.5
1116.44	780.5
1114.54	772.5
1112.65	765
1110.75	762.5
1108.86	792
1106.96	783
1105.07	789
1103.17	797
1101.27	802.5
1099.38	826
1097.48	826.5
1095.58	861.5
1093.68	859
1091.78	877
1089.88	899
1087.98	908
1086.08	913
1084.18	922.5
1082.28	917.5
1080.38	927.5
1078.47	916
1076.57	918
1074.67	912
1072.76	879
1070.86	905
1068.95	884.5
1067.05	901
1065.14	915.5
1063.24	908
1061.33	865
1059.42	871
1057.51	840
1055.6	842
1053.7	809
1051.79	815.5
1049.88	803.5
1047.97	822
1046.06	819.5
1044.14	819.5
1042.23	815.5
1040.32	792
1038.41	833.5
1036.5	811.5
1034.58	803
1032.67	801
1030.75	816
1028.84	818.5
1026.92	810.5
1025.01	794.5
1023.09	803.5
1021.17	811.5
1019.26	815
1017.34	818
1015.42	830
1013.5	782.5
1011.58	806.5
1009.66	814
1007.74	818.5
1005.82	808.5
1003.9	817.5
1001.98	796
1000.06	828.5
998.134	809
996.212	842
994.288	831
992.364	834
990.44	849.5
988.515	865.5
986.589	860.5
984.663	905.5
982.737	899.5
980.81	913
978.883	928.5
976.955	938
975.027	947.5
973.098	957
971.169	950.5
969.239	960.5
967.308	938
965.378	962
963.447	971.5
961.516	947
959.583	956
957.65	980
955.718	969
953.784	980.5
951.85	969
949.916	993
947.981	991
946.045	1011.5
944.109	1007.5
942.173	1022
940.236	990
938.298	1006
936.36	1017.5
934.422	1012.5
932.484	983.5
930.544	984.5
928.604	966.5
926.664	927.5
924.724	924
922.782	942
920.84	926
918.898	942
916.955	930.5
915.012	935.5
913.068	943
911.124	936
909.18	930.5
907.235	965
905.289	939
903.343	964.5
901.397	920.5
899.45	975.5
897.502	973
895.554	986.5
893.605	988.5
891.657	1007
889.707	999
887.758	1004.5
885.807	1002
883.856	1018.5
881.905	1013
879.953	991.5
878.001	1018.5
876.048	1037
874.094	1044.5
872.14	1054.5
870.186	1042
868.232	1065.5
866.276	1043
864.321	1027
862.365	1063
860.408	1047
858.451	1027
856.493	1038
854.535	1046
852.576	1037
850.617	1054.5
848.658	1034
846.698	1009
844.737	1041
842.776	1018.5
840.814	1028
838.852	1003.5
836.89	1002
834.927	998
832.963	977
830.999	992.5
829.035	963.5
827.07	945
825.105	958.5
823.139	942
821.172	961.5
819.206	937.5
817.238	910.5
815.27	911
813.301	925
811.333	910
809.363	916.5
807.394	907.5
805.424	883
803.453	896
801.482	894
799.509	886.5
797.538	875.5
795.565	879
793.592	844.5
791.618	873.5
789.643	853.5
787.669	859
785.693	869
783.718	883
781.742	860
779.765	869
777.788	870
775.811	877.5
773.832	866.5
771.853	885
769.875	874
767.895	870.5
765.915	864.5
763.934	869.5
761.953	850
759.972	868.5
757.99	878.5
756.007	869.5
754.024	873.5
752.041	861.5
750.056	888
748.072	873
746.087	886.5
744.102	884
742.116	887
740.13	898.5
738.143	875.5
736.155	897.5
734.167	893
732.179	888.5
730.19	891.5
728.2	880.5
726.21	897
724.22	894
722.229	913
720.237	900
718.246	909.5
716.253	891.5
714.26	884
712.267	891
710.273	893
708.279	889
706.284	891
704.289	895
702.293	889
700.296	901
698.3	886.5
696.303	907.5
694.305	898.5
692.307	914
690.307	905.5
688.308	920
686.309	894.5
684.308	895.5
682.308	891
680.306	902.5
678.304	913.5
676.302	919.5
674.3	905
672.296	919.5
670.293	922.5
668.289	917
666.284	930.5
664.278	924
662.273	908.5
660.266	927.5
658.26	923.5
656.252	929
654.244	941
652.237	937.5
650.227	935.5
648.218	943.5
646.209	956
644.198	954
642.188	943.5
640.177	943.5
638.165	966
636.153	955
634.14	969.5
632.128	970
630.113	968.5
628.099	986
626.085	991.5
624.07	960.5
622.054	982
620.038	986
618.021	999
616.004	997
613.986	993
611.968	976
609.949	985
607.93	1019.5
605.911	997.5
603.891	995.5
601.87	998.5
599.848	996
597.827	1008.5
595.805	994
593.782	998.5
591.759	1019
589.735	1002.5
587.711	1013
585.687	975
583.661	974.5
581.636	999.5
579.609	1018
577.583	1007
575.555	1017
573.527	1016
571.5	1000
569.471	1004.5
567.441	1022.5
565.412	1014.5
563.382	1029
561.351	1020.5
559.32	1032.5
557.289	1039.5
555.257	1055
553.223	1072
551.19	1091
549.157	1108
547.122	1107
545.088	1134
543.053	1126.5
541.017	1173
538.981	1187.5
536.943	1237
534.907	1378
532.869	1525
530.831	1770
528.792	2238
526.752	3018.5
524.713	4093.5
522.673	5183
520.632	5331
518.591	4596
516.549	3522
514.507	2641.5
512.464	2008.5
510.42	1641.5
508.377	1434.5
506.332	1319.5
504.288	1259.5
502.242	1214.5
500.196	1202
498.15	1197.5
496.104	1152.5
494.056	1165.5
492.008	1153.5
489.96	1144.5
487.911	1154.5
485.862	1117.5
483.812	1143
481.761	1142.5
479.71	1132.5
477.659	1143
475.607	1115
473.555	1126.5
471.502	1128.5
469.448	1115
467.395	1132
465.34	1125.5
463.285	1123.5
461.23	1147
459.174	1131.5
457.118	1147
455.061	1155.5
453.003	1142.5
450.945	1154.5
448.887	1140.5
446.828	1150.5
444.768	1156
442.708	1154.5
440.647	1149.5
438.587	1192
436.525	1177
434.463	1180
432.4	1174.5
430.337	1176.5
428.274	1196
426.21	1178
424.145	1191
422.079	1186.5
420.014	1161
417.948	1194.5
415.882	1186
413.814	1176
411.746	1205
409.679	1185.5
407.609	1220
405.54	1189
403.47	1233.5
401.401	1216
399.329	1195.5
397.258	1212
395.187	1208
393.114	1198.5
391.041	1236.5
388.968	1240
386.895	1220.5
384.82	1217.5
382.745	1210
380.67	1242.5
378.594	1229.5
376.517	1212.5
374.44	1234.5
372.363	1243
370.286	1243
368.207	1253.5
366.128	1248.5
364.049	1244
361.969	1273.5
359.888	1244
357.807	1272.5
355.725	1276
353.643	1266.5
351.561	1273.5
349.477	1277.5
347.394	1262
345.31	1303.5
343.226	1261
341.141	1258
339.055	1280
336.968	1293.5
334.882	1296.5
332.795	1332.5
330.707	1331.5
328.618	1315
326.53	1322.5
324.44	1335.5
322.351	1329
320.26	1341
318.17	1359.5
316.078	1384
313.987	1396.5
311.895	1420
309.802	1434
307.708	1453.5
305.614	1488
303.52	1472
301.425	1475
299.329	1476.5
297.233	1462.5
295.137	1458
293.039	1434
290.942	1429.5
288.844	1428
286.745	1432.5
284.647	1413.5
282.546	1430
280.446	1421.5
278.346	1404.5
276.245	1427.5
274.143	1438.5
272.041	1446
269.939	1445
267.835	1419.5
265.731	1428.5
263.627	1442.5
261.522	1449.5
259.417	1440
257.311	1466.5
255.204	1463.5
253.098	1449
250.99	1433
248.882	1465
246.774	1466.5
244.664	1496.5
242.555	1494.5
240.445	1487
238.334	1496.5
236.223	1510
234.112	1542
232	1533
229.888	1522.5
227.775	1533.5
225.661	1538
223.546	1535
221.431	1561.5
219.316	1583.5
217.201	1553.5
215.084	1557
212.967	1577.5
210.85	1578
208.732	1555.5
206.614	1550
204.495	1557
202.375	1529
200.256	1536
198.135	1536.5
196.014	1546.5
193.893	1515.5
191.771	1552.5
189.648	1531.5
187.525	1530
185.401	1529
183.277	1508.5
181.152	1534
179.027	1542.5
176.901	1544.5
174.775	1529
172.648	1549
170.521	1533.5
168.393	1567
166.265	1562.5
164.136	1567
162.007	1564
159.876	1588
157.746	1572
155.615	1632.5
153.483	1626
151.351	1655.5
149.219	1683.5
147.086	1714
144.952	1744
142.818	1752.5
140.684	1788.5
138.548	1825.5
136.413	1850
134.276	1901
132.139	1879.5
130.002	1975
127.864	1951.5
125.725	2003.5
123.587	1987.5
121.447	2058.5
119.307	2121.5
117.166	2168
115.026	2211
112.885	2256
110.743	2325.5
108.6	2292.5
106.456	2320.5
104.313	2362.5
102.169	2318
100.023	2215.5
97.8789	2070.5
95.7328	1893
93.5869	1631
91.4392	1393
89.2919	1131.5
87.1447	899
84.9959	691
