3528.51	213
3527.23	215
3525.95	250
3524.67	241.5
3523.39	240.5
3522.1	242.5
3520.82	243
3519.54	241.5
3518.26	243
3516.97	246
3515.69	244
3514.4	249
3513.12	250
3511.84	268
3510.55	266.5
3509.26	257
3507.98	259.5
3506.69	273.5
3505.41	267.5
3504.12	273.5
3502.83	285
3501.54	277.5
3500.26	278.5
3498.97	287
3497.68	280.5
3496.39	291.5
3495.1	287
3493.81	300
3492.52	305
3491.23	298.5
3489.94	303
3488.65	317
3487.36	329.5
3486.07	331.5
3484.78	336
3483.49	331.5
3482.19	333
3480.9	338
3479.61	345.5
3478.31	357
3477.02	351.5
3475.73	350
3474.43	349
3473.14	361
3471.84	373.5
3470.54	359.5
3469.25	375
3467.95	378
3466.66	383.5
3465.36	378
3464.06	390.5
3462.76	376
3461.46	393
3460.17	393
3458.87	397.5
3457.57	389.5
3456.27	398
3454.97	399
3453.67	400
3452.37	415.5
3451.07	409
3449.77	412.5
3448.47	430
3447.16	432
3445.86	438
3444.56	438
3443.26	446.5
3441.95	453
3440.65	460.5
3439.35	478.5
3438.04	488
3436.74	493.5
3435.43	490.5
3434.13	507
3432.82	507.5
3431.52	508
3430.21	526.5
3428.9	563.5
3427.6	551.5
3426.29	555
3424.98	549
3423.67	581
3422.36	567
3421.06	588.5
3419.75	595
3418.44	592.5
3417.13	599
3415.82	598.5
3414.51	635
3413.2	628
3411.88	652.5
3410.57	655.5
3409.26	652
3407.95	662
3406.64	658
3405.32	658
3404.01	675
3402.7	696.5
3401.38	682.5
3400.07	692
3398.75	676
3397.44	691
3396.12	712.5
3394.81	716
3393.49	715.5
3392.18	729.5
3390.86	711
3389.54	728.5
3388.23	736
3386.91	737
3385.59	760.5
3384.27	746
3382.95	771
3381.63	768.5
3380.31	787.5
3378.99	803.5
3377.67	804
3376.35	799
3375.03	810.5
3373.71	807.5
3372.39	815.5
3371.07	833
3369.75	817.5
3368.42	843.5
3367.1	866
3365.78	860
3364.45	836
3363.13	863
3361.81	863
3360.48	889
3359.16	880
3357.83	898
3356.51	906
3355.18	906
3353.85	887.5
3352.53	904
3351.2	890.5
3349.87	920
3348.54	907
3347.22	900
3345.89	932.5
3344.56	932
3343.23	904
3341.9	938
3340.57	934.5
3339.24	939.5
3337.91	937.5
3336.58	927.5
3335.25	966
3333.92	956.5
3332.58	950
3331.25	964
3329.92	980
3328.59	968.5
3327.25	981
3325.92	972
3324.58	983.5
3323.25	993.5
3321.92	999.5
3320.58	1014
3319.25	1018
3317.91	1008
3316.57	1024
3315.24	1033.5
3313.9	1009
3312.56	1042
3311.23	1031.5
3309.89	1039
3308.55	1056
3307.21	1059.5
3305.87	1072.5
3304.53	1074.5
3303.19	1072
3301.85	1066
3300.51	1095
3299.17	1067.5
3297.83	1086.5
3296.49	1090.5
3295.15	1073.5
3293.81	1103
3292.46	1106.5
3291.12	1099
3289.78	1114
3288.43	1106
3287.09	1095
3285.75	1119
3284.4	1137.5
3283.06	1136
3281.71	1135.5
3280.37	1153
3279.02	1136
3277.67	1149
3276.33	1141
3274.98	1167.5
3273.63	1183
3272.28	1189.5
3270.94	1188
3269.59	1190.5
3268.24	1222
3266.89	1219.5
3265.54	1244
3264.19	1256.5
3262.84	1255.5
3261.49	1298.5
3260.14	1323.5
3258.79	1317
3257.44	1372
3256.08	1376
3254.73	1413.5
3253.38	1457.5
3252.03	1468.5
3250.67	1496
3249.32	1507.5
3247.96	1561.5
3246.61	1623
3245.26	1637.5
3243.9	1683
3242.54	1711
3241.19	1761
3239.83	1802.5
3238.48	1896.5
3237.12	1926
3235.76	1977.5
3234.41	2024
3233.05	2027.5
3231.69	2088
3230.33	2143
3228.97	2168
3227.61	2190
3226.25	2272
3224.89	2308.5
3223.53	2365
3222.17	2406.5
3220.81	2412
3219.45	2416
3218.09	2459.5
3216.72	2485
3215.36	2531.5
3214	2542.5
3212.63	2569
3211.27	2564.5
3209.91	2580.5
3208.54	2625
3207.18	2635
3205.81	2662.5
3204.45	2636
3203.08	2693.5
3201.71	2670
3200.35	2715.5
3198.98	2728
3197.61	2763.5
3196.25	2771
3194.88	2796
3193.51	2777
3192.14	2812
3190.77	2832
3189.4	2828.5
3188.03	2805.5
3186.66	2816
3185.29	2862.5
3183.92	2848
3182.55	2897
3181.18	2870.5
3179.81	2946.5
3178.44	2944
3177.06	2950
3175.69	2983
3174.32	3008
3172.94	3023.5
3171.57	3037.5
3170.2	3011
3168.82	3056
3167.45	3072
3166.07	3111
3164.69	3095
3163.32	3162.5
3161.94	3223
3160.56	3228
3159.19	3252.5
3157.81	3257.5
3156.43	3288
3155.05	3326.5
3153.67	3322
3152.3	3360.5
3150.92	3383
3149.54	3393.5
3148.16	3425.5
3146.78	3463
3145.4	3431
3144.01	3507.5
3142.63	3524.5
3141.25	3541
3139.87	3590
3138.49	3581.5
3137.1	3623
3135.72	3610.5
3134.34	3629.5
3132.95	3687.5
3131.57	3711.5
3130.18	3718
3128.8	3734
3127.41	3811
3126.03	3829.5
3124.64	3811.5
3123.25	3863.5
3121.87	3845
3120.48	3880
3119.09	3931.5
3117.7	3943.5
3116.32	3939.5
3114.93	3988.5
3113.54	4033.5
3112.15	4037.5
3110.76	4055.5
3109.37	4042
3107.98	4028.5
3106.59	4102.5
3105.2	4115
3103.8	4102.5
3102.41	4139
3101.02	4146.5
3099.63	4113.5
3098.23	4163
3096.84	4211.5
3095.45	4182.5
3094.05	4198.5
3092.66	4272
3091.26	4238
3089.87	4274.5
3088.47	4297.5
3087.08	4320
3085.68	4322
3084.28	4289
3082.89	4352
3081.49	4347
3080.09	4355.5
3078.69	4423.5
3077.3	4416.5
3075.9	4367.5
3074.5	4399.5
3073.1	4403
3071.7	4412.5
3070.3	4429.5
3068.9	4453
3067.5	4464.5
3066.09	4471.5
3064.69	4488.5
3063.29	4482.5
3061.89	4504.5
3060.48	4492
3059.08	4521
3057.68	4545.5
3056.27	4549
3054.87	4550.5
3053.46	4600.5
3052.06	4568.5
3050.65	4573
3049.25	4581.5
3047.84	4614.5
3046.44	4644
3045.03	4639
3043.62	4643
3042.21	4686.5
3040.81	4711.5
3039.4	4724
3037.99	4702
3036.58	4727.5
3035.17	4769
3033.76	4768.5
3032.35	4775.5
3030.94	4746
3029.53	4749
3028.12	4793
3026.71	4816
3025.29	4840
3023.88	4807.5
3022.47	4790
3021.06	4841.5
3019.64	4797.5
3018.23	4790.5
3016.82	4829
3015.4	4860.5
3013.99	4857
3012.57	4868
3011.15	4881
3009.74	4905
3008.32	4858
3006.91	4911
3005.49	4973.5
3004.07	4940
3002.65	4968.5
3001.24	4957.5
2999.82	4988
2998.4	4980
2996.98	5031
2995.56	5075
2994.14	5111.5
2992.72	5109
2991.3	5128
2989.88	5106.5
2988.46	5163
2987.03	5227
2985.61	5229.5
2984.19	5289.5
2982.77	5284.5
2981.34	5301
2979.92	5366.5
2978.49	5403.5
2977.07	5422.5
2975.65	5418.5
2974.22	5426.5
2972.79	5480.5
2971.37	5497.5
2969.94	5537
2968.52	5553.5
2967.09	5500
2965.66	5588
2964.23	5541
2962.81	5609
2961.38	5614
2959.95	5614.5
2958.52	5629
2957.09	5652.5
2955.66	5680.5
2954.23	5641.5
2952.8	5627
2951.37	5693.5
2949.94	5646
2948.5	5682.5
2947.07	5705.5
2945.64	5717
2944.21	5710.5
2942.77	5766
2941.34	5735
2939.91	5783.5
2938.47	5784
2937.04	5796.5
2935.6	5864.5
2934.17	5824.5
2932.73	5886.5
2931.29	5920.5
2929.86	5937.5
2928.42	5941.5
2926.98	5952
2925.55	5947.5
2924.11	6002
2922.67	5973.5
2921.23	5930
2919.79	5955
2918.35	5936
2916.91	5954.5
2915.47	6006.5
2914.03	6004
2912.59	5935.5
2911.15	6010.5
2909.71	6046.5
2908.26	5988
2906.82	5998
2905.38	5981
2903.94	6027
2902.49	6118
2901.05	6116.5
2899.6	6134
2898.16	6105.5
2896.71	6096
2895.27	6144.5
2893.82	6161.5
2892.38	6167.5
2890.93	6118.5
2889.48	6123.5
2888.03	6109.5
2886.59	6175
2885.14	6125.5
2883.69	6149
2882.24	6194
2880.79	6191.5
2879.34	6203
2877.89	6221.5
2876.44	6205
2874.99	6198.5
2873.54	6231
2872.09	6207
2870.64	6176.5
2869.18	6257
2867.73	6245
2866.28	6229
2864.83	6215
2863.37	6249.5
2861.92	6262.5
2860.46	6264
2859.01	6223
2857.55	6244
2856.1	6272.5
2854.64	6310.5
2853.19	6282.5
2851.73	6248.5
2850.27	6231.5
2848.81	6318.5
2847.36	6286.5
2845.9	6282.5
2844.44	6264.5
2842.98	6269
2841.52	6229.5
2840.06	6240.5
2838.6	6215.5
2837.14	6268.5
2835.68	6226.5
2834.22	6253
2832.76	6240.5
2831.3	6215.5
2829.83	6172
2828.37	6231
2826.91	6221
2825.44	6201
2823.98	6179.5
2822.52	6170
2821.05	6201.5
2819.59	6157.5
2818.12	6104
2816.66	6193
2815.19	6156
2813.72	6187
2812.26	6213
2810.79	6173.5
2809.32	6136.5
2807.85	6125
2806.38	6161
2804.92	6178
2803.45	6161.5
2801.98	6136.5
2800.51	6146.5
2799.04	6152
2797.57	6128
2796.1	6128.5
2794.62	6106.5
2793.15	6110.5
2791.68	6094.5
2790.21	6074.5
2788.73	6096.5
2787.26	6029
2785.79	6062
2784.31	6115.5
2782.84	6077.5
2781.36	6094.5
2779.89	6118
2778.41	6116.5
2776.94	6121.5
2775.46	6040.5
2773.99	6142.5
2772.51	6167.5
2771.03	6130.5
2769.55	6133
2768.07	6165
2766.6	6202.5
2765.12	6182
2763.64	6227.5
2762.16	6179.5
2760.68	6114.5
2759.2	6178
2757.72	6156.5
2756.24	6156
2754.75	6126
2753.27	6198.5
2751.79	6172
2750.31	6153.5
2748.82	6137
2747.34	6157.5
2745.86	6160
2744.37	6099.5
2742.89	6169
2741.4	6134.5
2739.92	6114
2738.43	6146.5
2736.94	6102
2735.46	6134
2733.97	6111
2732.48	6136.5
2731	6146.5
2729.51	6109.5
2728.02	6095
2726.53	6138
2725.04	6106
2723.55	6048
2722.06	6101
2720.57	6110
2719.08	6054
2717.59	6147.5
2716.1	6072
2714.61	6097.5
2713.11	6071
2711.62	6048
2710.13	6039.5
2708.64	6059.5
2707.14	6156.5
2705.65	6112.5
2704.15	6073.5
2702.66	6082
2701.16	5994.5
2699.67	6032.5
2698.17	6009.5
2696.67	6013
2695.18	6011
2693.68	5961
2692.18	5981
2690.69	6023
2689.19	5944.5
2687.69	5980
2686.19	5912
2684.69	5926.5
2683.19	5935
2681.69	5969
2680.19	5927
2678.69	5839.5
2677.19	5871.5
2675.68	5939
2674.18	5895
2672.68	5886.5
2671.18	5876
2669.67	5886.5
2668.17	5917
2666.66	5878
2665.16	5908.5
2663.66	5890.5
2662.15	5812.5
2660.64	5879
2659.14	5807.5
2657.63	5851.5
2656.13	5801
2654.62	5793.5
2653.11	5846.5
2651.6	5741.5
2650.09	5765
2648.58	5709
2647.08	5743
2645.57	5713
2644.06	5735
2642.55	5699
2641.04	5699
2639.52	5684
2638.01	5648.5
2636.5	5673.5
2634.99	5629
2633.48	5639
2631.96	5595
2630.45	5612.5
2628.94	5581.5
2627.42	5609.5
2625.91	5637.5
2624.39	5618.5
2622.88	5563.5
2621.36	5596.5
2619.85	5556.5
2618.33	5534.5
2616.81	5576
2615.3	5570.5
2613.78	5531.5
2612.26	5525.5
2610.74	5532.5
2609.22	5504.5
2607.7	5492
2606.18	5520
2604.66	5477.5
2603.14	5444
2601.62	5425
2600.1	5335
2598.58	5391.5
2597.06	5401
2595.54	5379
2594.01	5346.5
2592.49	5337.5
2590.97	5328
2589.44	5341.5
2587.92	5350.5
2586.39	5332.5
2584.87	5305.5
2583.34	5346
2581.82	5313.5
2580.29	5303
2578.76	5329.5
2577.24	5286.5
2575.71	5323
2574.18	5283.5
2572.65	5300
2571.13	5239
2569.6	5288.5
2568.07	5309.5
2566.54	5268.5
2565.01	5296
2563.48	5252
2561.95	5291.5
2560.42	5223
2558.88	5270.5
2557.35	5216.5
2555.82	5213.5
2554.29	5208
2552.75	5180.5
2551.22	5156.5
2549.69	5170
2548.15	5160.5
2546.62	5130.5
2545.08	5111.5
2543.55	5138.5
2542.01	5165
2540.47	5093
2538.94	5034
2537.4	5077
2535.86	5038.5
2534.33	5027
2532.79	5046
2531.25	5024
2529.71	4960
2528.17	4964.5
2526.63	4934.5
2525.09	4936
2523.55	4924
2522.01	4964
2520.47	4935
2518.92	4932
2517.38	4912
2515.84	4890
2514.3	4904
2512.75	4834.5
2511.21	4862
2509.67	4833.5
2508.12	4861.5
2506.58	4816.5
2505.03	4803.5
2503.49	4728
2501.94	4722.5
2500.39	4740
2498.85	4757.5
2497.3	4732
2495.75	4736.5
2494.2	4672
2492.65	4688.5
2491.11	4643
2489.56	4654.5
2488.01	4615.5
2486.46	4633
2484.91	4629
2483.36	4647
2481.8	4621.5
2480.25	4599
2478.7	4577.5
2477.15	4574
2475.6	4544.5
2474.04	4552.5
2472.49	4497.5
2470.93	4524
2469.38	4499.5
2467.83	4424.5
2466.27	4444.5
2464.71	4426.5
2463.16	4392
2461.6	4387.5
2460.05	4369.5
2458.49	4363.5
2456.93	4340
2455.37	4303.5
2453.81	4290.5
2452.26	4315
2450.7	4283
2449.14	4266.5
2447.58	4226
2446.02	4183.5
2444.46	4187.5
2442.9	4180
2441.33	4169
2439.77	4167.5
2438.21	4163.5
2436.65	4093
2435.08	4130.5
2433.52	4143
2431.96	4113.5
2430.39	4100.5
2428.83	4115
2427.26	4107
2425.7	4120.5
2424.13	4089
2422.56	4034
2421	4078
2419.43	4070
2417.86	4076.5
2416.3	4062
2414.73	4014
2413.16	3983.5
2411.59	4018
2410.02	3974
2408.45	3998.5
2406.88	4024.5
2405.31	3969.5
2403.74	3992.5
2402.17	3994.5
2400.6	3988
2399.02	4006
2397.45	3939
2395.88	3944.5
2394.3	3948
2392.73	3936
2391.16	3932.5
2389.58	3881
2388.01	3866.5
2386.43	3918.5
2384.86	3947
2383.28	3907.5
2381.7	3913.5
2380.13	3935
2378.55	3914
2376.97	3931
2375.39	3902.5
2373.81	3898
2372.23	3832.5
2370.65	3869.5
2369.07	3839.5
2367.49	3851.5
2365.91	3873.5
2364.33	3840.5
2362.75	3859
2361.17	3822
2359.59	3808
2358.01	3816.5
2356.42	3773
2354.84	3755
2353.25	3785.5
2351.67	3732
2350.09	3760
2348.5	3781
2346.92	3781
2345.33	3786
2343.74	3786
2342.16	3779.5
2340.57	3772
2338.98	3742
2337.39	3691.5
2335.81	3718.5
2334.22	3751
2332.63	3745
2331.04	3694.5
2329.45	3716
2327.86	3727.5
2326.27	3755.5
2324.68	3688.5
2323.09	3636
2321.49	3659
2319.9	3642.5
2318.31	3666.5
2316.72	3640.5
2315.12	3582
2313.53	3562.5
2311.93	3586.5
2310.34	3609
2308.74	3579
2307.15	3575
2305.55	3540.5
2303.96	3541.5
2302.36	3542.5
2300.76	3517
2299.17	3499
2297.57	3441
2295.97	3489.5
2294.37	3476
2292.77	3461.5
2291.17	3472
2289.57	3418
2287.97	3436
2286.37	3437
2284.77	3422.5
2283.17	3437
2281.57	3432.5
2279.96	3415
2278.36	3430.5
2276.76	3410
2275.15	3398
2273.55	3405
2271.95	3387.5
2270.34	3376
2268.74	3384
2267.13	3313
2265.52	3320
2263.92	3317.5
2262.31	3290
2260.7	3321
2259.1	3305.5
2257.49	3285.5
2255.88	3273.5
2254.27	3294.5
2252.66	3282.5
2251.05	3251
2249.44	3319
2247.83	3310.5
2246.22	3298
2244.61	3295.5
2243	3299
2241.39	3292.5
2239.77	3250.5
2238.16	3232.5
2236.55	3188
2234.93	3216
2233.32	3144.5
2231.7	3189.5
2230.09	3113
2228.47	3136.5
2226.86	3119
2225.24	3135
2223.63	3120.5
2222.01	3131
2220.39	3117
2218.77	3127
2217.16	3104
2215.54	3100
2213.92	3113
2212.3	3071.5
2210.68	3042.5
2209.06	3016.5
2207.44	3043
2205.82	3033.5
2204.19	3014
2202.57	3021.5
2200.95	3000.5
2199.33	2988.5
2197.7	2992
2196.08	3025
2194.46	2976
2192.83	3004.5
2191.21	2975.5
2189.58	2965.5
2187.96	2952
2186.33	2923
2184.7	2909.5
2183.08	2954
2181.45	2944
2179.82	2914.5
2178.19	2885
2176.57	2893
2174.94	2883
2173.31	2902
2171.68	2901
2170.05	2844
2168.42	2861.5
2166.79	2836
2165.16	2829
2163.52	2851.5
2161.89	2856
2160.26	2819
2158.63	2856.5
2156.99	2812
2155.36	2810
2153.73	2829.5
2152.09	2772
2150.46	2800.5
2148.82	2765.5
2147.18	2761.5
2145.55	2795.5
2143.91	2760.5
2142.27	2719.5
2140.64	2714.5
2139	2695
2137.36	2655
2135.72	2688.5
2134.08	2706
2132.44	2657.5
2130.8	2664
2129.16	2654
2127.52	2622
2125.88	2646
2124.24	2639.5
2122.6	2600.5
2120.95	2546.5
2119.31	2558
2117.67	2547
2116.02	2567.5
2114.38	2561
2112.74	2572
2111.09	2518
2109.45	2567.5
2107.8	2501.5
2106.15	2527
2104.51	2541
2102.86	2501
2101.21	2478
2099.56	2521
2097.92	2512
2096.27	2521
2094.62	2502
2092.97	2482.5
2091.32	2504
2089.67	2457
2088.02	2501
2086.37	2489
2084.72	2495
2083.06	2482
2081.41	2463
2079.76	2498.5
2078.1	2482
2076.45	2465
2074.8	2481
2073.14	2472
2071.49	2471
2069.83	2485
2068.18	2477
2066.52	2447.5
2064.86	2458
2063.21	2435.5
2061.55	2444.5
2059.89	2436.5
2058.23	2440.5
2056.57	2431
2054.92	2433
2053.26	2423
2051.6	2435
2049.94	2402
2048.27	2424.5
2046.61	2417.5
2044.95	2422.5
2043.29	2390
2041.63	2375.5
2039.97	2382
2038.3	2353
2036.64	2385.5
2034.97	2340
2033.31	2309
2031.64	2338
2029.98	2300.5
2028.31	2314.5
2026.65	2290.5
2024.98	2266.5
2023.31	2271
2021.65	2296
2019.98	2291.5
2018.31	2235.5
2016.64	2233
2014.97	2242
2013.3	2204
2011.63	2233.5
2009.96	2250
2008.29	2218.5
2006.62	2194
2004.95	2223
2003.28	2199.5
2001.6	2202.5
1999.93	2211
1998.26	2157
1996.58	2196
1994.91	2174.5
1993.24	2218
1991.56	2201
1989.89	2177
1988.21	2163.5
1986.53	2184
1984.86	2157
1983.18	2161
1981.5	2134
1979.82	2158
1978.15	2144.5
1976.47	2138
1974.79	2112.5
1973.11	2147.5
1971.43	2110.5
1969.75	2152.5
1968.07	2079
1966.38	2107.5
1964.7	2088.5
1963.02	2063
1961.34	2080
1959.66	2051
1957.97	2053
1956.29	2042
1954.6	2073
1952.92	2062
1951.23	2031.5
1949.55	2079
1947.86	2040
1946.18	2029.5
1944.49	2033
1942.8	2035
1941.11	2020
1939.43	2028
1937.74	2012
1936.05	2014
1934.36	2019.5
1932.67	2023
1930.98	1999.5
1929.29	1984
1927.6	1986.5
1925.91	1980.5
1924.21	1954.5
1922.52	1979.5
1920.83	1945.5
1919.14	1953.5
1917.44	1961.5
1915.75	1953
1914.05	1926.5
1912.36	1953.5
1910.66	1905
1908.97	1938
1907.27	1906
1905.58	1917.5
1903.88	1937.5
1902.18	1919
1900.48	1904
1898.79	1895
1897.09	1862
1895.39	1872.5
1893.69	1898.5
1891.99	1874
1890.29	1868
1888.59	1851
1886.89	1874.5
1885.18	1848
1883.48	1875
1881.78	1858
1880.08	1850.5
1878.37	1845.5
1876.67	1777.5
1874.96	1806
1873.26	1788.5
1871.55	1818
1869.85	1822.5
1868.14	1794
1866.44	1769
1864.73	1813
1863.02	1739
1861.32	1799
1859.61	1793.5
1857.9	1770
1856.19	1776.5
1854.48	1786
1852.77	1796.5
1851.06	1779
1849.35	1817
1847.64	1775
1845.93	1765.5
1844.21	1780.5
1842.5	1768.5
1840.79	1763.5
1839.08	1749
1837.36	1739.5
1835.65	1735.5
1833.93	1728
1832.22	1756.5
1830.5	1742
1828.79	1751.5
1827.07	1721
1825.36	1724.5
1823.64	1716
1821.92	1731
1820.2	1690
1818.48	1692.5
1816.77	1679
1815.05	1692
1813.33	1685.5
1811.61	1713.5
1809.89	1652.5
1808.16	1674.5
1806.44	1692.5
1804.72	1645.5
1803	1663
1801.28	1676.5
1799.55	1684
1797.83	1662
1796.11	1663
1794.38	1686.5
1792.66	1656
1790.93	1636.5
1789.21	1629.5
1787.48	1630.5
1785.75	1668
1784.03	1645.5
1782.3	1644
1780.57	1648.5
1778.84	1635
1777.11	1643
1775.38	1663.5
1773.66	1629.5
1771.93	1646
1770.19	1639
1768.46	1663
1766.73	1650.5
1765	1651.5
1763.27	1659
1761.54	1672
1759.8	1675.5
1758.07	1664
1756.34	1673.5
1754.6	1678.5
1752.87	1711
1751.13	1697
1749.4	1714.5
1747.66	1691
1745.92	1681
1744.19	1691.5
1742.45	1698.5
1740.71	1673.5
1738.97	1699
1737.23	1700
1735.49	1682
1733.75	1664.5
1732.01	1659
1730.27	1644
1728.53	1650
1726.79	1661.5
1725.05	1638.5
1723.31	1648.5
1721.57	1618.5
1719.82	1611
1718.08	1603.5
1716.34	1620.5
1714.59	1601
1712.85	1637.5
1711.1	1615.5
1709.36	1604.5
1707.61	1589.5
1705.86	1581.5
1704.12	1572.5
1702.37	1594.5
1700.62	1581.5
1698.87	1568.5
1697.12	1559.5
1695.37	1592
1693.62	1609.5
1691.87	1569.5
1690.12	1579.5
1688.37	1555.5
1686.62	1594
1684.87	1563.5
1683.12	1587
1681.36	1577
1679.61	1574
1677.86	1575
1676.1	1572.5
1674.35	1609
1672.59	1597.5
1670.84	1582.5
1669.08	1615.5
1667.33	1647.5
1665.57	1664
1663.81	1672
1662.06	1676
1660.3	1692.5
1658.54	1720
1656.78	1708.5
1655.02	1668
1653.26	1700
1651.5	1678.5
1649.74	1646.5
1647.98	1639.5
1646.22	1604
1644.46	1615.5
1642.7	1610.5
1640.93	1609
1639.17	1610
1637.41	1579
1635.64	1569.5
1633.88	1573
1632.11	1594
1630.35	1558.5
1628.58	1592
1626.81	1577.5
1625.05	1584
1623.28	1573.5
1621.51	1563.5
1619.75	1573.5
1617.98	1552
1616.21	1594.5
1614.44	1566
1612.67	1558
1610.9	1571.5
1609.13	1562.5
1607.36	1570
1605.58	1554
1603.81	1578
1602.04	1585
1600.27	1557.5
1598.49	1596
1596.72	1593
1594.95	1561
1593.17	1584
1591.4	1604.5
1589.62	1602.5
1587.84	1551.5
1586.07	1573.5
1584.29	1578.5
1582.51	1591.5
1580.74	1558
1578.96	1569
1577.18	1548.5
1575.4	1570.5
1573.62	1570
1571.84	1569.5
1570.06	1546
1568.28	1573.5
1566.5	1564
1564.72	1572
1562.93	1554
1561.15	1547
1559.37	1567.5
1557.58	1580
1555.8	1583.5
1554.02	1566.5
1552.23	1575.5
1550.45	1541.5
1548.66	1547.5
1546.87	1574
1545.09	1576.5
1543.3	1565
1541.51	1564.5
1539.72	1541
1537.94	1541
1536.15	1546.5
1534.36	1531.5
1532.57	1530
1530.78	1531
1528.99	1524.5
1527.2	1544.5
1525.4	1545
1523.61	1533
1521.82	1549
1520.03	1509
1518.23	1545.5
1516.44	1574.5
1514.65	1556
1512.85	1585.5
1511.06	1591
1509.26	1578.5
1507.46	1587
1505.67	1563.5
1503.87	1583.5
1502.07	1582.5
1500.28	1563
1498.48	1584
1496.68	1573.5
1494.88	1588.5
1493.08	1596
1491.28	1583.5
1489.48	1610.5
1487.68	1611.5
1485.88	1605.5
1484.08	1614.5
1482.27	1613
1480.47	1611.5
1478.67	1607
1476.86	1641
1475.06	1672
1473.25	1698
1471.45	1716
1469.64	1715.5
1467.84	1774.5
1466.03	1760.5
1464.23	1762
1462.42	1815.5
1460.61	1790
1458.8	1866
1456.99	1869.5
1455.18	1858
1453.37	1878
1451.56	1891.5
1449.75	1924
1447.94	1917.5
1446.13	1934
1444.32	1959.5
1442.51	1935.5
1440.7	1953.5
1438.88	1944
1437.07	1887
1435.26	1895.5
1433.44	1820.5
1431.63	1764.5
1429.81	1734
1427.99	1733.5
1426.18	1705.5
1424.36	1677
1422.54	1644
1420.73	1694
1418.91	1664.5
1417.09	1673
1415.27	1648.5
1413.45	1631.5
1411.63	1645
1409.81	1602.5
1407.99	1652
1406.17	1653.5
1404.35	1636
1402.53	1643
1400.7	1635.5
1398.88	1629
1397.06	1620.5
1395.23	1628
1393.41	1639.5
1391.58	1630
1389.76	1641
1387.93	1596.5
1386.11	1618.5
1384.28	1631
1382.45	1638
1380.62	1665.5
1378.8	1636.5
1376.97	1659
1375.14	1652.5
1373.31	1636
1371.48	1638.5
1369.65	1639.5
1367.82	1641.5
1365.99	1592.5
1364.16	1660.5
1362.32	1647
1360.49	1639
1358.66	1618
1356.82	1649
1354.99	1659
1353.16	1606
1351.32	1664
1349.48	1624
1347.65	1626
1345.81	1635.5
1343.98	1637
1342.14	1645.5
1340.3	1679.5
1338.46	1668.5
1336.62	1658
1334.79	1683
1332.95	1665.5
1331.11	1687.5
1329.27	1707.5
1327.42	1730
1325.58	1727
1323.74	1754.5
1321.9	1775
1320.06	1800.5
1318.21	1804
1316.37	1822.5
1314.53	1854
1312.68	1856
1310.84	1897
1308.99	1912
1307.15	1927
1305.3	1968
1303.45	1953.5
1301.61	1947.5
1299.76	1933
1297.91	1932
1296.06	1906.5
1294.21	1867
1292.36	1877
1290.51	1810
1288.66	1844
1286.81	1811.5
1284.96	1819.5
1283.11	1836.5
1281.26	1850
1279.4	1809.5
1277.55	1828
1275.7	1838.5
1273.84	1838
1271.99	1826
1270.13	1831.5
1268.28	1821
1266.42	1863.5
1264.56	1825.5
1262.71	1843.5
1260.85	1844
1258.99	1817.5
1257.13	1806.5
1255.27	1798
1253.41	1825
1251.56	1810.5
1249.7	1788.5
1247.83	1789
1245.97	1764
1244.11	1763.5
1242.25	1786
1240.39	1777
1238.52	1756
1236.66	1775
1234.8	1764.5
1232.93	1760.5
1231.07	1766
1229.2	1746
1227.34	1761.5
1225.47	1775
1223.6	1771.5
1221.74	1762
1219.87	1735
1218	1773.5
1216.13	1750.5
1214.26	1759.5
1212.39	1753.5
1210.53	1752
1208.65	1756
1206.78	1780.5
1204.91	1776
1203.04	1769
1201.17	1761
1199.3	1728.5
1197.42	1727.5
1195.55	1722
1193.68	1730.5
1191.8	1748
1189.93	1729
1188.05	1747
1186.17	1749
1184.3	1716.5
1182.42	1728.5
1180.54	1756
1178.67	1737.5
1176.79	1767.5
1174.91	1779
1173.03	1771
1171.15	1772.5
1169.27	1754.5
1167.39	1783
1165.51	1764.5
1163.63	1750.5
1161.75	1795
1159.86	1770
1157.98	1795
1156.1	1772
1154.21	1779
1152.33	1784
1150.44	1830
1148.56	1842
1146.67	1822.5
1144.79	1831
1142.9	1832.5
1141.01	1842.5
1139.12	1866.5
1137.24	1841.5
1135.35	1856
1133.46	1859
1131.57	1854
1129.68	1888.5
1127.79	1896.5
1125.9	1869.5
1124.01	1891.5
1122.12	1894
1120.22	1897.5
1118.33	1921.5
1116.44	1892.5
1114.54	1891
1112.65	1881
1110.75	1883
1108.86	1882.5
1106.96	1906
1105.07	1922
1103.17	1917
1101.27	1958
1099.38	1951
1097.48	1946
1095.58	1943
1093.68	1971
1091.78	1962.5
1089.88	1960.5
1087.98	1980.5
1086.08	1987
1084.18	1994.5
1082.28	2000.5
1080.38	2005.5
1078.47	1981
1076.57	1994.5
1074.67	1971
1072.76	1978
1070.86	1986.5
1068.95	1969
1067.05	1988.5
1065.14	2012.5
1063.24	2023.5
1061.33	1979.5
1059.42	1975.5
1057.51	1969
1055.6	1952.5
1053.7	1988
1051.79	1964.5
1049.88	1931.5
1047.97	1952.5
1046.06	1970
1044.14	1959.5
1042.23	1934
1040.32	1972.5
1038.41	1939.5
1036.5	1977
1034.58	1965
1032.67	1983.5
1030.75	1988
1028.84	1964.5
1026.92	1978
1025.01	1979.5
1023.09	1983
1021.17	2002
1019.26	1996.5
1017.34	1990
1015.42	1981
1013.5	2025.5
1011.58	2014
1009.66	2016
1007.74	1995.5
1005.82	2007
1003.9	2048
1001.98	2043
1000.06	2018.5
998.134	2004.5
996.212	2035
994.288	2045.5
992.364	2076
990.44	2050.5
988.515	2070.5
986.589	2103.5
984.663	2153.5
982.737	2131
980.81	2150
978.883	2171
976.955	2204.5
975.027	2195.5
973.098	2221.5
971.169	2233.5
969.239	2190.5
967.308	2239.5
965.378	2219
963.447	2243.5
961.516	2232
959.583	2241.5
957.65	2256.5
955.718	2266.5
953.784	2271
951.85	2224
949.916	2283.5
947.981	2272.5
946.045	2298
944.109	2306.5
942.173	2317.5
940.236	2318
938.298	2318.5
936.36	2311.5
934.422	2327
932.484	2307.5
930.544	2321
928.604	2245.5
926.664	2274.5
924.724	2235
922.782	2263.5
920.84	2239.5
918.898	2283.5
916.955	2281.5
915.012	2250.5
913.068	2285
911.124	2280.5
909.18	2290.5
907.235	2296
905.289	2332
903.343	2316
901.397	2336.5
899.45	2320
897.502	2354
895.554	2357
893.605	2376.5
891.657	2401.5
889.707	2381.5
887.758	2386.5
885.807	2375.5
883.856	2414
881.905	2393.5
879.953	2387.5
878.001	2415
876.048	2433
874.094	2457.5
872.14	2431.5
870.186	2415.5
868.232	2444
866.276	2450
864.321	2423.5
862.365	2498.5
860.408	2458
858.451	2453
856.493	2468.5
854.535	2423.5
852.576	2468
850.617	2438
848.658	2473.5
846.698	2462.5
844.737	2447.5
842.776	2471.5
840.814	2493.5
838.852	2461
836.89	2455
834.927	2466.5
832.963	2497
830.999	2470.5
829.035	2458.5
827.07	2452.5
825.105	2427.5
823.139	2412.5
821.172	2413
819.206	2424.5
817.238	2418.5
815.27	2408.5
813.301	2444
811.333	2382
809.363	2422
807.394	2412
805.424	2419.5
803.453	2402.5
801.482	2396.5
799.509	2404
797.538	2390.5
795.565	2359
793.592	2364
791.618	2390.5
789.643	2391.5
787.669	2439
785.693	2425.5
783.718	2414.5
781.742	2381
779.765	2393.5
777.788	2441.5
775.811	2412
773.832	2400.5
771.853	2427
769.875	2438.5
767.895	2407
765.915	2430.5
763.934	2425.5
761.953	2451.5
759.972	2446.5
757.99	2437
756.007	2429.5
754.024	2418
752.041	2414
750.056	2433.5
748.072	2431.5
746.087	2444.5
744.102	2464
742.116	2468.5
740.13	2464
738.143	2486
736.155	2486
734.167	2496.5
732.179	2507.5
730.19	2512.5
728.2	2496.5
726.21	2502.5
724.22	2525.5
722.229	2532
720.237	2501
718.246	2529.5
716.253	2498
714.26	2524
712.267	2531.5
710.273	2585
708.279	2556
706.284	2553
704.289	2504.5
702.293	2524.5
700.296	2536
698.3	2577.5
696.303	2592.5
694.305	2614.5
692.307	2608
690.307	2583.5
688.308	2614.5
686.309	2611
684.308	2558.5
682.308	2631
680.306	2652
678.304	2639.5
676.302	2626
674.3	2660.5
672.296	2669.5
670.293	2691.5
668.289	2677
666.284	2672
664.278	2693.5
662.273	2707.5
660.266	2707.5
658.26	2721
656.252	2728.5
654.244	2721
652.237	2697
650.227	2699.5
648.218	2747
646.209	2712
644.198	2776.5
642.188	2777
640.177	2744.5
638.165	2793
636.153	2770
634.14	2741.5
632.128	2783.5
630.113	2785
628.099	2816.5
626.085	2775
624.07	2823
622.054	2844
620.038	2822
618.021	2824.5
616.004	2830
613.986	2824
611.968	2835
609.949	2821.5
607.93	2851.5
605.911	2815
603.891	2830.5
601.87	2856
599.848	2839
597.827	2890.5
595.805	2867
593.782	2875.5
591.759	2864
589.735	2899.5
587.711	2887.5
585.687	2888.5
583.661	2904.5
581.636	2921.5
579.609	2890
577.583	2915
575.555	2944.5
573.527	2905.5
571.5	2935
569.471	2959.5
567.441	2978
565.412	3042.5
563.382	3021.5
561.351	3047
559.32	3020
557.289	3017.5
555.257	3071
553.223	3041
551.19	3084.5
549.157	3124.5
547.122	3106
545.088	3140.5
543.053	3145
541.017	3257
538.981	3280
536.943	3369
534.907	3481.5
532.869	3693
530.831	4096
528.792	4731.5
526.752	5890.5
524.713	7265
522.673	8255
520.632	8029.5
518.591	6976.5
516.549	5802
514.507	4807
512.464	4160.5
510.42	3754.5
508.377	3519.5
506.332	3414
504.288	3339.5
502.242	3303.5
500.196	3270.5
498.15	3269
496.104	3258
494.056	3250.5
492.008	3247.5
489.96	3292.5
487.911	3222.5
485.862	3260
483.812	3291
481.761	3257
479.71	3274
477.659	3247
475.607	3229.5
473.555	3220.5
471.502	3220.5
469.448	3239.5
467.395	3234.5
465.34	3245.5
463.285	3252.5
461.23	3246.5
459.174	3257.5
457.118	3229.5
455.061	3255.5
453.003	3275.5
450.945	3256.5
448.887	3282
446.828	3289.5
444.768	3340.5
442.708	3330.5
440.647	3303
438.587	3284.5
436.525	3347
434.463	3317
432.4	3322
430.337	3337.5
428.274	3336.5
426.21	3333.5
424.145	3385.5
422.079	3407
420.014	3351
417.948	3366.5
415.882	3322
413.814	3387.5
411.746	3359
409.679	3360.5
407.609	3378
405.54	3374.5
403.47	3395
401.401	3438
399.329	3418.5
397.258	3429
395.187	3429.5
393.114	3428
391.041	3471
388.968	3423.5
386.895	3462
384.82	3487
382.745	3483
380.67	3480
378.594	3481
376.517	3510
374.44	3519.5
372.363	3497.5
370.286	3555.5
368.207	3512
366.128	3607.5
364.049	3548
361.969	3604.5
359.888	3559
357.807	3548.5
355.725	3550
353.643	3606.5
351.561	3600
349.477	3618
347.394	3607.5
345.31	3593.5
343.226	3619
341.141	3636.5
339.055	3636
336.968	3665.5
334.882	3610.5
332.795	3667
330.707	3686.5
328.618	3677
326.53	3687.5
324.44	3744
322.351	3721
320.26	3789
318.17	3769
316.078	3807
313.987	3824
311.895	3866.5
309.802	3836.5
307.708	3903.5
305.614	3894
303.52	3899
301.425	3906.5
299.329	3915.5
297.233	3917.5
295.137	3866.5
293.039	3849.5
290.942	3856
288.844	3836.5
286.745	3801.5
284.647	3842
282.546	3841.5
280.446	3822
278.346	3783
276.245	3846.5
274.143	3817.5
272.041	3795.5
269.939	3794.5
267.835	3815.5
265.731	3845.5
263.627	3784.5
261.522	3856.5
259.417	3911.5
257.311	3882
255.204	3919.5
253.098	3898.5
250.99	3902.5
248.882	3868.5
246.774	3938
244.664	3973
242.555	3915
240.445	3943
238.334	3993
236.223	3959.5
234.112	4023
232	4006.5
229.888	4037
227.775	4029.5
225.661	4065
223.546	4077
221.431	4092
219.316	4035
217.201	4080.5
215.084	4060
212.967	4060
210.85	4114.5
208.732	4127
206.614	4096
204.495	4088
202.375	4072.5
200.256	4074
198.135	4100.5
196.014	4061.5
193.893	4134
191.771	4083
189.648	4038
187.525	4042.5
185.401	4032
183.277	4066
181.152	4035.5
179.027	4157
176.901	4068
174.775	4089.5
172.648	4063.5
170.521	4075.5
168.393	4100
166.265	4098
164.136	4125.5
162.007	4124
159.876	4166.5
157.746	4197
155.615	4244
153.483	4243.5
151.351	4274.5
149.219	4317
147.086	4375
144.952	4477.5
142.818	4524
140.684	4532
138.548	4587.5
136.413	4635.5
134.276	4680.5
132.139	4700.5
130.002	4766.5
127.864	4789.5
125.725	4885.5
123.587	4930.5
121.447	4967
119.307	5012.5
117.166	5023.5
115.026	5098.5
112.885	5150
110.743	5219.5
108.6	5130.5
106.456	5124
104.313	5077
102.169	4859.5
100.023	4564
97.8789	4120
95.7328	3706.5
93.5869	3233.5
91.4392	2636.5
89.2919	2141.5
87.1447	1675.5
84.9959	1275.5
