3528.51	1181.25
3527.23	1178.5
3525.95	1176.5
3524.67	1199
3523.39	1193.75
3522.1	1206.25
3520.82	1187.25
3519.54	1208.25
3518.26	1195.25
3516.97	1196
3515.69	1181.25
3514.4	1203.75
3513.12	1193
3511.84	1194
3510.55	1197.5
3509.26	1192.75
3507.98	1195
3506.69	1195.5
3505.41	1188.5
3504.12	1203.25
3502.83	1203
3501.54	1197.5
3500.26	1186.75
3498.97	1207.75
3497.68	1200.25
3496.39	1202.75
3495.1	1202.25
3493.81	1204.75
3492.52	1207
3491.23	1211.25
3489.94	1216.5
3488.65	1211.25
3487.36	1226.75
3486.07	1218.5
3484.78	1227
3483.49	1235
3482.19	1231.75
3480.9	1233.5
3479.61	1238
3478.31	1246.75
3477.02	1231.75
3475.73	1239.25
3474.43	1241.25
3473.14	1235
3471.84	1245.75
3470.54	1254.75
3469.25	1247.75
3467.95	1251.5
3466.66	1264
3465.36	1243.5
3464.06	1245.75
3462.76	1260.75
3461.46	1262.5
3460.17	1258.5
3458.87	1270.25
3457.57	1260
3456.27	1264
3454.97	1269
3453.67	1267.25
3452.37	1258
3451.07	1269.75
3449.77	1277.25
3448.47	1283
3447.16	1283.75
3445.86	1264.5
3444.56	1288.75
3443.26	1297
3441.95	1298.25
3440.65	1301.75
3439.35	1305.25
3438.04	1305.75
3436.74	1323
3435.43	1314.5
3434.13	1332.25
3432.82	1323.25
3431.52	1344.5
3430.21	1339
3428.9	1345.25
3427.6	1351
3426.29	1360.25
3424.98	1357.75
3423.67	1353.75
3422.36	1373.75
3421.06	1371
3419.75	1366.25
3418.44	1377.75
3417.13	1379.5
3415.82	1384
3414.51	1400.25
3413.2	1399.75
3411.88	1401
3410.57	1401.5
3409.26	1411.5
3407.95	1394
3406.64	1411.25
3405.32	1403.5
3404.01	1426.5
3402.7	1425.5
3401.38	1425
3400.07	1431.5
3398.75	1430.5
3397.44	1428.75
3396.12	1438.25
3394.81	1443.5
3393.49	1435.5
3392.18	1435.75
3390.86	1457.75
3389.54	1443.5
3388.23	1470
3386.91	1471.25
3385.59	1473
3384.27	1472.75
3382.95	1478
3381.63	1484
3380.31	1494.75
3378.99	1489.75
3377.67	1507.25
3376.35	1506.25
3375.03	1504
3373.71	1503
3372.39	1508
3371.07	1504.5
3369.75	1518.5
3368.42	1515
3367.1	1520
3365.78	1534.75
3364.45	1541.75
3363.13	1537.5
3361.81	1539.5
3360.48	1536.25
3359.16	1547.5
3357.83	1555
3356.51	1560.5
3355.18	1556
3353.85	1551.5
3352.53	1548.25
3351.2	1564.5
3349.87	1563
3348.54	1568.5
3347.22	1575.5
3345.89	1566
3344.56	1582.5
3343.23	1554
3341.9	1569.25
3340.57	1567.5
3339.24	1565.5
3337.91	1576
3336.58	1578.75
3335.25	1566.5
3333.92	1590.5
3332.58	1595.25
3331.25	1597.5
3329.92	1599.5
3328.59	1607.25
3327.25	1599.25
3325.92	1607.25
3324.58	1609.25
3323.25	1607.25
3321.92	1622.75
3320.58	1622.75
3319.25	1615.75
3317.91	1621.5
3316.57	1627
3315.24	1612.5
3313.9	1635.5
3312.56	1626.25
3311.23	1648.75
3309.89	1643.5
3308.55	1654.75
3307.21	1636.75
3305.87	1659
3304.53	1653.75
3303.19	1665
3301.85	1661.5
3300.51	1665
3299.17	1665.75
3297.83	1677.5
3296.49	1652.5
3295.15	1669
3293.81	1683
3292.46	1681.75
3291.12	1697.25
3289.78	1700.25
3288.43	1685.25
3287.09	1669.25
3285.75	1687.25
3284.4	1689.25
3283.06	1675.25
3281.71	1698.25
3280.37	1690.5
3279.02	1703.5
3277.67	1709
3276.33	1705.25
3274.98	1715.25
3273.63	1718.75
3272.28	1718
3270.94	1726.75
3269.59	1734
3268.24	1758
3266.89	1740.5
3265.54	1756
3264.19	1763.5
3262.84	1784.75
3261.49	1791.5
3260.14	1799.5
3258.79	1811
3257.44	1829.75
3256.08	1833.75
3254.73	1866.25
3253.38	1862.5
3252.03	1892.5
3250.67	1926.5
3249.32	1935.25
3247.96	1961
3246.61	1987.5
3245.26	2000.75
3243.9	2028.5
3242.54	2066.25
3241.19	2078.25
3239.83	2108.25
3238.48	2143.5
3237.12	2183.25
3235.76	2209.25
3234.41	2216
3233.05	2275
3231.69	2291.75
3230.33	2309.5
3228.97	2342
3227.61	2359.75
3226.25	2373.75
3224.89	2399.5
3223.53	2429.75
3222.17	2439.25
3220.81	2468.25
3219.45	2488.5
3218.09	2499.5
3216.72	2509.25
3215.36	2538
3214	2544.75
3212.63	2557.25
3211.27	2576.5
3209.91	2569.75
3208.54	2588
3207.18	2600.25
3205.81	2608.75
3204.45	2621.75
3203.08	2639.25
3201.71	2659
3200.35	2649.25
3198.98	2640.25
3197.61	2658.5
3196.25	2705
3194.88	2666.25
3193.51	2678.5
3192.14	2681.25
3190.77	2704.75
3189.4	2694
3188.03	2712.5
3186.66	2726.75
3185.29	2730.75
3183.92	2739.75
3182.55	2733
3181.18	2765
3179.81	2788.25
3178.44	2780.5
3177.06	2795.75
3175.69	2802.25
3174.32	2822
3172.94	2829.75
3171.57	2838
3170.2	2847.25
3168.82	2869.5
3167.45	2869.25
3166.07	2882.5
3164.69	2911.25
3163.32	2928
3161.94	2938
3160.56	2942.25
3159.19	2961
3157.81	2978.5
3156.43	2991.25
3155.05	2990.25
3153.67	3009
3152.3	3027.5
3150.92	3036.25
3149.54	3043
3148.16	3073
3146.78	3080.5
3145.4	3115
3144.01	3110.5
3142.63	3113.5
3141.25	3149.25
3139.87	3158.25
3138.49	3152.25
3137.1	3178
3135.72	3200.25
3134.34	3222.5
3132.95	3220.25
3131.57	3246
3130.18	3250
3128.8	3256.5
3127.41	3278.25
3126.03	3300.25
3124.64	3306.5
3123.25	3328.75
3121.87	3342
3120.48	3373.5
3119.09	3370.25
3117.7	3380
3116.32	3377.5
3114.93	3389.75
3113.54	3400.5
3112.15	3425.75
3110.76	3431.75
3109.37	3434.75
3107.98	3467.25
3106.59	3448
3105.2	3478
3103.8	3477.5
3102.41	3505.5
3101.02	3529.5
3099.63	3515.25
3098.23	3504.75
3096.84	3536.75
3095.45	3554.5
3094.05	3559
3092.66	3580
3091.26	3582.5
3089.87	3600.75
3088.47	3595
3087.08	3598
3085.68	3610
3084.28	3601.5
3082.89	3604.5
3081.49	3632.75
3080.09	3628.75
3078.69	3641
3077.3	3633.75
3075.9	3649.5
3074.5	3672.25
3073.1	3656.75
3071.7	3669
3070.3	3684.75
3068.9	3675
3067.5	3652.5
3066.09	3692.5
3064.69	3698.5
3063.29	3703.5
3061.89	3716.25
3060.48	3718
3059.08	3716
3057.68	3751
3056.27	3721.75
3054.87	3745.75
3053.46	3741.5
3052.06	3762.25
3050.65	3758.75
3049.25	3768.25
3047.84	3779.5
3046.44	3784.75
3045.03	3801.75
3043.62	3809.5
3042.21	3795
3040.81	3840.25
3039.4	3828.5
3037.99	3852
3036.58	3857.5
3035.17	3865.5
3033.76	3870.25
3032.35	3869
3030.94	3898
3029.53	3873.5
3028.12	3886.75
3026.71	3898
3025.29	3880.75
3023.88	3906.25
3022.47	3865.25
3021.06	3907.25
3019.64	3922.75
3018.23	3918
3016.82	3908.75
3015.4	3902.75
3013.99	3935.25
3012.57	3921.75
3011.15	3921.25
3009.74	3954.75
3008.32	3954
3006.91	3966.75
3005.49	3972
3004.07	3974.75
3002.65	3988.25
3001.24	3998
2999.82	4007.5
2998.4	4014.5
2996.98	4037.5
2995.56	4036.5
2994.14	4080.75
2992.72	4061.5
2991.3	4078.5
2989.88	4100.25
2988.46	4121
2987.03	4139
2985.61	4175.5
2984.19	4186
2982.77	4178
2981.34	4217.25
2979.92	4186.5
2978.49	4231.75
2977.07	4232
2975.65	4268
2974.22	4287.75
2972.79	4299
2971.37	4308.25
2969.94	4310
2968.52	4308.5
2967.09	4343.75
2965.66	4332
2964.23	4340.5
2962.81	4362.75
2961.38	4334
2959.95	4368.25
2958.52	4355.25
2957.09	4390.5
2955.66	4374.5
2954.23	4394.25
2952.8	4398
2951.37	4397.25
2949.94	4399.75
2948.5	4412
2947.07	4419.25
2945.64	4403
2944.21	4404.25
2942.77	4442
2941.34	4409.5
2939.91	4475
2938.47	4435.25
2937.04	4461.5
2935.6	4465.5
2934.17	4499.5
2932.73	4503.75
2931.29	4524
2929.86	4558.5
2928.42	4528.25
2926.98	4515.5
2925.55	4518.75
2924.11	4525.25
2922.67	4541.25
2921.23	4572
2919.79	4551
2918.35	4536.5
2916.91	4544.75
2915.47	4547.75
2914.03	4535.5
2912.59	4555.75
2911.15	4590.75
2909.71	4559.25
2908.26	4556.5
2906.82	4557.75
2905.38	4580.5
2903.94	4594
2902.49	4614
2901.05	4582
2899.6	4608.5
2898.16	4625.5
2896.71	4645.5
2895.27	4630.5
2893.82	4616.75
2892.38	4624.75
2890.93	4634
2889.48	4611
2888.03	4655.5
2886.59	4640.75
2885.14	4655
2883.69	4651.5
2882.24	4670.25
2880.79	4662.75
2879.34	4679
2877.89	4704.5
2876.44	4673
2874.99	4687.75
2873.54	4671.75
2872.09	4663.5
2870.64	4672.75
2869.18	4695.5
2867.73	4716.25
2866.28	4686.75
2864.83	4694.75
2863.37	4672.75
2861.92	4722
2860.46	4692.25
2859.01	4750
2857.55	4711
2856.1	4727.5
2854.64	4720.25
2853.19	4708.25
2851.73	4705
2850.27	4721.5
2848.81	4735.25
2847.36	4724.25
2845.9	4738
2844.44	4752.25
2842.98	4721.5
2841.52	4721.5
2840.06	4726.25
2838.6	4725.25
2837.14	4733.5
2835.68	4720.75
2834.22	4719.75
2832.76	4712.5
2831.3	4725
2829.83	4715.25
2828.37	4712
2826.91	4693
2825.44	4713.5
2823.98	4716.75
2822.52	4698.5
2821.05	4712
2819.59	4686
2818.12	4687.25
2816.66	4656.75
2815.19	4674.75
2813.72	4684.75
2812.26	4674
2810.79	4707.25
2809.32	4681.75
2807.85	4648.5
2806.38	4673.5
2804.92	4667
2803.45	4659.5
2801.98	4673
2800.51	4680.75
2799.04	4670.5
2797.57	4660.5
2796.1	4647.5
2794.62	4649.75
2793.15	4650
2791.68	4629.25
2790.21	4629.25
2788.73	4627.75
2787.26	4637.5
2785.79	4616.5
2784.31	4635.75
2782.84	4637.5
2781.36	4645.5
2779.89	4665.5
2778.41	4623.5
2776.94	4639.75
2775.46	4645.5
2773.99	4663.25
2772.51	4644.75
2771.03	4680.75
2769.55	4677
2768.07	4699.25
2766.6	4706.5
2765.12	4709
2763.64	4687.25
2762.16	4704.25
2760.68	4679.5
2759.2	4672
2757.72	4684.5
2756.24	4700
2754.75	4689.25
2753.27	4687
2751.79	4679
2750.31	4703.75
2748.82	4678.75
2747.34	4667
2745.86	4689.5
2744.37	4657.5
2742.89	4642.75
2741.4	4700.25
2739.92	4660.25
2738.43	4654.5
2736.94	4665
2735.46	4662.5
2733.97	4656
2732.48	4642.5
2731	4631.25
2729.51	4664.25
2728.02	4633.5
2726.53	4635.25
2725.04	4634.5
2723.55	4653.5
2722.06	4640.5
2720.57	4621
2719.08	4605.5
2717.59	4634
2716.1	4638.5
2714.61	4638.75
2713.11	4618.75
2711.62	4637
2710.13	4623.25
2708.64	4658
2707.14	4612.75
2705.65	4596.75
2704.15	4657.75
2702.66	4618.25
2701.16	4598.75
2699.67	4621.5
2698.17	4601.5
2696.67	4587.5
2695.18	4600
2693.68	4561
2692.18	4590.25
2690.69	4582
2689.19	4569
2687.69	4536.75
2686.19	4544
2684.69	4550.75
2683.19	4549.25
2681.69	4511.75
2680.19	4520.25
2678.69	4483.75
2677.19	4502.5
2675.68	4520.5
2674.18	4503.75
2672.68	4494.75
2671.18	4477.75
2669.67	4506
2668.17	4472.5
2666.66	4514
2665.16	4465.75
2663.66	4468
2662.15	4469
2660.64	4483.75
2659.14	4494.5
2657.63	4475.5
2656.13	4478.25
2654.62	4483.75
2653.11	4458
2651.6	4456.75
2650.09	4418.25
2648.58	4432.75
2647.08	4415.25
2645.57	4426.25
2644.06	4440.25
2642.55	4408
2641.04	4401.25
2639.52	4383.5
2638.01	4374.5
2636.5	4374
2634.99	4366.5
2633.48	4359.25
2631.96	4298.25
2630.45	4325.25
2628.94	4313.25
2627.42	4321.75
2625.91	4329.75
2624.39	4332
2622.88	4310.25
2621.36	4319.75
2619.85	4329.5
2618.33	4287
2616.81	4294.25
2615.3	4309.75
2613.78	4275.5
2612.26	4277
2610.74	4276.5
2609.22	4256.25
2607.7	4276.75
2606.18	4241.25
2604.66	4234.75
2603.14	4228.75
2601.62	4204.25
2600.1	4201.5
2598.58	4197
2597.06	4173.25
2595.54	4173.5
2594.01	4154.5
2592.49	4150.25
2590.97	4153.5
2589.44	4148.25
2587.92	4175.5
2586.39	4152
2584.87	4158.25
2583.34	4151
2581.82	4153.25
2580.29	4153
2578.76	4138.75
2577.24	4119.5
2575.71	4119.75
2574.18	4112.75
2572.65	4121.5
2571.13	4113.75
2569.6	4133
2568.07	4137.75
2566.54	4128.25
2565.01	4115.75
2563.48	4129
2561.95	4112.25
2560.42	4116.75
2558.88	4095.5
2557.35	4100.5
2555.82	4082.5
2554.29	4073
2552.75	4067.75
2551.22	4022.25
2549.69	4045
2548.15	4021.5
2546.62	4034.75
2545.08	4025.75
2543.55	4025
2542.01	3998
2540.47	4006.5
2538.94	3987
2537.4	3983.25
2535.86	3981.75
2534.33	3961.5
2532.79	3931.5
2531.25	3957.5
2529.71	3941
2528.17	3929.75
2526.63	3886.5
2525.09	3900
2523.55	3891
2522.01	3908.25
2520.47	3887.25
2518.92	3881.25
2517.38	3879.75
2515.84	3888.5
2514.3	3881.5
2512.75	3848
2511.21	3833.25
2509.67	3832
2508.12	3798.5
2506.58	3814.25
2505.03	3811.25
2503.49	3776.5
2501.94	3799
2500.39	3796.25
2498.85	3795
2497.3	3765.25
2495.75	3748.5
2494.2	3727.75
2492.65	3728.25
2491.11	3737.5
2489.56	3743.25
2488.01	3706.5
2486.46	3742.75
2484.91	3697
2483.36	3711.5
2481.8	3668.25
2480.25	3695.5
2478.7	3664.25
2477.15	3666.75
2475.6	3652.25
2474.04	3667.25
2472.49	3647
2470.93	3632
2469.38	3621.5
2467.83	3583.5
2466.27	3578.25
2464.71	3568.75
2463.16	3549.25
2461.6	3573.25
2460.05	3557.75
2458.49	3543.25
2456.93	3515.25
2455.37	3530
2453.81	3497.25
2452.26	3493
2450.7	3456
2449.14	3466.5
2447.58	3438.25
2446.02	3442.25
2444.46	3436.75
2442.9	3421
2441.33	3402.75
2439.77	3419.75
2438.21	3431
2436.65	3415
2435.08	3394.75
2433.52	3402.75
2431.96	3399.25
2430.39	3376.5
2428.83	3370
2427.26	3389.25
2425.7	3378
2424.13	3334
2422.56	3361
2421	3344.25
2419.43	3338
2417.86	3325.5
2416.3	3333.75
2414.73	3296.5
2413.16	3325.25
2411.59	3330.25
2410.02	3300.75
2408.45	3311.5
2406.88	3301
2405.31	3319.5
2403.74	3299
2402.17	3312.75
2400.6	3306.25
2399.02	3269.25
2397.45	3276.5
2395.88	3277
2394.3	3259.75
2392.73	3253.75
2391.16	3236.75
2389.58	3255
2388.01	3246
2386.43	3242.5
2384.86	3248.75
2383.28	3241.75
2381.7	3242
2380.13	3239.5
2378.55	3262.5
2376.97	3244.5
2375.39	3217.5
2373.81	3238.75
2372.23	3211
2370.65	3228
2369.07	3211
2367.49	3200
2365.91	3221.75
2364.33	3209.25
2362.75	3190
2361.17	3186.5
2359.59	3189.25
2358.01	3182.25
2356.42	3183.75
2354.84	3169
2353.25	3156.25
2351.67	3139.75
2350.09	3181.75
2348.5	3152.5
2346.92	3167.75
2345.33	3160.25
2343.74	3140.5
2342.16	3134.5
2340.57	3157.25
2338.98	3138
2337.39	3135
2335.81	3139.5
2334.22	3110.5
2332.63	3111.25
2331.04	3134
2329.45	3100
2327.86	3088.25
2326.27	3088.75
2324.68	3101.5
2323.09	3106
2321.49	3090.75
2319.9	3079.5
2318.31	3060.5
2316.72	3043.5
2315.12	3044
2313.53	3040
2311.93	3028.25
2310.34	3004.75
2308.74	3033.5
2307.15	3004.5
2305.55	3016
2303.96	2995.25
2302.36	2980
2300.76	2972.75
2299.17	2968.5
2297.57	2945
2295.97	2948.25
2294.37	2942
2292.77	2926.25
2291.17	2926.25
2289.57	2934
2287.97	2916.5
2286.37	2906.25
2284.77	2930.5
2283.17	2914
2281.57	2889.5
2279.96	2908.75
2278.36	2899.75
2276.76	2890
2275.15	2903.25
2273.55	2903.5
2271.95	2881.25
2270.34	2869
2268.74	2865
2267.13	2862.75
2265.52	2845
2263.92	2864.25
2262.31	2847
2260.7	2832.25
2259.1	2818.75
2257.49	2821
2255.88	2821.5
2254.27	2843
2252.66	2834
2251.05	2825
2249.44	2807.5
2247.83	2820.75
2246.22	2811.5
2244.61	2817.75
2243	2832.75
2241.39	2765.25
2239.77	2795
2238.16	2775.75
2236.55	2766.75
2234.93	2762.25
2233.32	2766.75
2231.7	2729.25
2230.09	2743
2228.47	2732.25
2226.86	2727.5
2225.24	2718.5
2223.63	2718.5
2222.01	2684
2220.39	2711
2218.77	2703
2217.16	2687
2215.54	2695
2213.92	2663.25
2212.3	2673.25
2210.68	2664
2209.06	2647
2207.44	2650.5
2205.82	2657.25
2204.19	2640.25
2202.57	2617.5
2200.95	2621
2199.33	2623.25
2197.7	2597.75
2196.08	2625.5
2194.46	2614.75
2192.83	2621.75
2191.21	2604.5
2189.58	2595.75
2187.96	2592.75
2186.33	2609.25
2184.7	2595.5
2183.08	2583
2181.45	2587
2179.82	2567
2178.19	2573.75
2176.57	2547
2174.94	2526.5
2173.31	2513
2171.68	2534.25
2170.05	2525.75
2168.42	2536
2166.79	2521.25
2165.16	2508.5
2163.52	2503
2161.89	2495.75
2160.26	2504.5
2158.63	2472.5
2156.99	2472.5
2155.36	2482.75
2153.73	2480.75
2152.09	2475.75
2150.46	2469
2148.82	2458.5
2147.18	2449
2145.55	2435.5
2143.91	2438.75
2142.27	2432.5
2140.64	2421
2139	2436
2137.36	2413.25
2135.72	2415.25
2134.08	2409
2132.44	2390.75
2130.8	2393.25
2129.16	2386.25
2127.52	2373.5
2125.88	2362
2124.24	2342.5
2122.6	2342.5
2120.95	2336.5
2119.31	2334.5
2117.67	2310
2116.02	2335.25
2114.38	2320.25
2112.74	2321
2111.09	2318
2109.45	2305.25
2107.8	2301.5
2106.15	2296.25
2104.51	2301.75
2102.86	2294.25
2101.21	2287.75
2099.56	2274.5
2097.92	2284.5
2096.27	2275.25
2094.62	2277.25
2092.97	2258
2091.32	2250.5
2089.67	2247
2088.02	2256.25
2086.37	2263.5
2084.72	2253.75
2083.06	2258.25
2081.41	2246.5
2079.76	2221
2078.1	2239.25
2076.45	2245.75
2074.8	2230.75
2073.14	2244.75
2071.49	2249.75
2069.83	2235.25
2068.18	2238.25
2066.52	2225.5
2064.86	2228.75
2063.21	2201.75
2061.55	2226.25
2059.89	2225.25
2058.23	2202.5
2056.57	2226.25
2054.92	2210.75
2053.26	2211.5
2051.6	2204
2049.94	2191.5
2048.27	2190.75
2046.61	2204
2044.95	2172.5
2043.29	2161.5
2041.63	2173.25
2039.97	2149.5
2038.3	2153.5
2036.64	2150.25
2034.97	2125
2033.31	2143
2031.64	2129.5
2029.98	2122.75
2028.31	2131.5
2026.65	2109.75
2024.98	2089
2023.31	2097
2021.65	2088.25
2019.98	2091
2018.31	2072.25
2016.64	2063
2014.97	2081
2013.3	2073.5
2011.63	2068
2009.96	2065
2008.29	2050.25
2006.62	2056.75
2004.95	2038.5
2003.28	2038.75
2001.6	2053.5
1999.93	2040.75
1998.26	2020.25
1996.58	2041.25
1994.91	2023
1993.24	2040.75
1991.56	2024.75
1989.89	2019.5
1988.21	2005.75
1986.53	1993
1984.86	2010.5
1983.18	2008
1981.5	2004.25
1979.82	1994
1978.15	1982.25
1976.47	1995
1974.79	1979.25
1973.11	1996
1971.43	1985
1969.75	1985.75
1968.07	1967
1966.38	1963.25
1964.7	1947.75
1963.02	1937.25
1961.34	1938.75
1959.66	1948
1957.97	1952.25
1956.29	1927.75
1954.6	1938.25
1952.92	1939
1951.23	1933
1949.55	1929.5
1947.86	1918
1946.18	1935
1944.49	1919.75
1942.8	1917
1941.11	1896.5
1939.43	1881.25
1937.74	1913.75
1936.05	1895.5
1934.36	1894.75
1932.67	1892
1930.98	1894.25
1929.29	1875
1927.6	1868.75
1925.91	1871.75
1924.21	1865
1922.52	1870
1920.83	1855.75
1919.14	1853
1917.44	1848.5
1915.75	1860
1914.05	1837.5
1912.36	1843.5
1910.66	1859.5
1908.97	1845
1907.27	1833.75
1905.58	1830
1903.88	1815.5
1902.18	1810
1900.48	1801
1898.79	1814
1897.09	1800
1895.39	1799.75
1893.69	1784.5
1891.99	1798.5
1890.29	1785.75
1888.59	1781
1886.89	1793.5
1885.18	1782.25
1883.48	1771.25
1881.78	1750.25
1880.08	1761.75
1878.37	1754.25
1876.67	1751.75
1874.96	1758.25
1873.26	1737
1871.55	1740.75
1869.85	1737.75
1868.14	1731.75
1866.44	1733.5
1864.73	1737
1863.02	1731
1861.32	1723.75
1859.61	1727
1857.9	1726.25
1856.19	1715.25
1854.48	1704.75
1852.77	1705.75
1851.06	1721.5
1849.35	1701.25
1847.64	1697
1845.93	1700.5
1844.21	1695
1842.5	1696.75
1840.79	1700.75
1839.08	1688.75
1837.36	1691
1835.65	1690.75
1833.93	1691
1832.22	1672.75
1830.5	1673.5
1828.79	1671.5
1827.07	1662.75
1825.36	1663
1823.64	1659.5
1821.92	1646
1820.2	1645.5
1818.48	1655.75
1816.77	1650
1815.05	1646
1813.33	1651.25
1811.61	1634
1809.89	1647.25
1808.16	1644.5
1806.44	1622.75
1804.72	1644
1803	1624
1801.28	1610.25
1799.55	1603.25
1797.83	1597.75
1796.11	1623.75
1794.38	1602
1792.66	1608.5
1790.93	1603
1789.21	1610.5
1787.48	1592
1785.75	1595
1784.03	1586.5
1782.3	1578.75
1780.57	1583.25
1778.84	1585.25
1777.11	1593
1775.38	1584.25
1773.66	1575.5
1771.93	1589.75
1770.19	1575
1768.46	1584.75
1766.73	1581.25
1765	1583
1763.27	1584.25
1761.54	1560
1759.8	1573
1758.07	1569.5
1756.34	1574.25
1754.6	1564
1752.87	1574
1751.13	1563
1749.4	1557.25
1747.66	1577
1745.92	1564.5
1744.19	1564.25
1742.45	1555.5
1740.71	1555.5
1738.97	1561.25
1737.23	1554.75
1735.49	1557.75
1733.75	1548
1732.01	1549.25
1730.27	1542.5
1728.53	1543.75
1726.79	1533
1725.05	1544.25
1723.31	1527
1721.57	1528.5
1719.82	1520.25
1718.08	1520.75
1716.34	1513.75
1714.59	1520.75
1712.85	1519.25
1711.1	1513
1709.36	1505.75
1707.61	1503.5
1705.86	1513.25
1704.12	1497.75
1702.37	1498.5
1700.62	1482.25
1698.87	1495.25
1697.12	1482
1695.37	1496.75
1693.62	1486.75
1691.87	1478.25
1690.12	1467.75
1688.37	1473.25
1686.62	1468.75
1684.87	1467
1683.12	1469.25
1681.36	1458.75
1679.61	1469.5
1677.86	1471.25
1676.1	1471.5
1674.35	1454.75
1672.59	1458
1670.84	1465.5
1669.08	1469.75
1667.33	1473.75
1665.57	1465
1663.81	1475.75
1662.06	1479
1660.3	1497.5
1658.54	1476
1656.78	1493.5
1655.02	1473.25
1653.26	1481
1651.5	1466.5
1649.74	1443
1647.98	1454
1646.22	1452.5
1644.46	1442
1642.7	1440.75
1640.93	1438
1639.17	1433.5
1637.41	1437.5
1635.64	1421.5
1633.88	1422.75
1632.11	1419.75
1630.35	1419.5
1628.58	1427.5
1626.81	1420.25
1625.05	1407
1623.28	1408.5
1621.51	1405.25
1619.75	1409.5
1617.98	1399.5
1616.21	1384.5
1614.44	1403
1612.67	1404
1610.9	1390.75
1609.13	1395.25
1607.36	1392
1605.58	1389
1603.81	1388.5
1602.04	1392.25
1600.27	1396
1598.49	1395.75
1596.72	1389
1594.95	1394
1593.17	1374.25
1591.4	1375.5
1589.62	1367
1587.84	1367.75
1586.07	1379
1584.29	1371.25
1582.51	1382.25
1580.74	1364.5
1578.96	1374.25
1577.18	1361.75
1575.4	1384.5
1573.62	1363.25
1571.84	1353
1570.06	1366.75
1568.28	1365.5
1566.5	1352
1564.72	1363.75
1562.93	1344.5
1561.15	1344
1559.37	1350.75
1557.58	1355.25
1555.8	1347.25
1554.02	1352.5
1552.23	1337.25
1550.45	1345.25
1548.66	1341.75
1546.87	1344.5
1545.09	1334
1543.3	1336.5
1541.51	1341.25
1539.72	1334.25
1537.94	1337
1536.15	1319
1534.36	1322.75
1532.57	1334.5
1530.78	1320.5
1528.99	1320.25
1527.2	1323.25
1525.4	1307
1523.61	1323.5
1521.82	1312.75
1520.03	1320.75
1518.23	1311.5
1516.44	1318.75
1514.65	1314.25
1512.85	1315.25
1511.06	1320
1509.26	1310.75
1507.46	1325.25
1505.67	1315
1503.87	1306.25
1502.07	1311.25
1500.28	1303.5
1498.48	1318.25
1496.68	1306.75
1494.88	1309.75
1493.08	1309.75
1491.28	1308.5
1489.48	1312.25
1487.68	1304.75
1485.88	1321.75
1484.08	1319.25
1482.27	1298.75
1480.47	1318.5
1478.67	1308.25
1476.86	1316
1475.06	1325
1473.25	1324
1471.45	1322.5
1469.64	1323.25
1467.84	1338
1466.03	1348
1464.23	1343.75
1462.42	1353.5
1460.61	1362.75
1458.8	1366
1456.99	1373.75
1455.18	1365.25
1453.37	1346.5
1451.56	1382.25
1449.75	1381.5
1447.94	1378.25
1446.13	1387.25
1444.32	1390.25
1442.51	1389.5
1440.7	1384
1438.88	1371.5
1437.07	1376
1435.26	1350
1433.44	1345.25
1431.63	1329.25
1429.81	1302.75
1427.99	1310.75
1426.18	1289
1424.36	1286
1422.54	1283.75
1420.73	1272.25
1418.91	1281
1417.09	1273.5
1415.27	1280
1413.45	1264.25
1411.63	1258.25
1409.81	1266
1407.99	1247.25
1406.17	1255.5
1404.35	1255.75
1402.53	1249.5
1400.7	1251.75
1398.88	1251
1397.06	1255.75
1395.23	1245.5
1393.41	1254.5
1391.58	1248.5
1389.76	1248.75
1387.93	1240
1386.11	1243.5
1384.28	1244
1382.45	1244.5
1380.62	1241.5
1378.8	1245.25
1376.97	1229.75
1375.14	1256
1373.31	1243.75
1371.48	1227.5
1369.65	1242
1367.82	1245.75
1365.99	1240
1364.16	1222.5
1362.32	1235.5
1360.49	1227.25
1358.66	1225.5
1356.82	1231.5
1354.99	1230.75
1353.16	1230.5
1351.32	1224.25
1349.48	1223.5
1347.65	1220.5
1345.81	1232.25
1343.98	1224
1342.14	1219.75
1340.3	1212
1338.46	1223.75
1336.62	1219.5
1334.79	1212.5
1332.95	1236.5
1331.11	1223.25
1329.27	1228.75
1327.42	1234
1325.58	1238.75
1323.74	1226.5
1321.9	1236
1320.06	1240.25
1318.21	1228.5
1316.37	1247.25
1314.53	1252.25
1312.68	1251.5
1310.84	1267.25
1308.99	1262.25
1307.15	1280.5
1305.3	1272.5
1303.45	1277.75
1301.61	1285
1299.76	1284.75
1297.91	1285.25
1296.06	1274.75
1294.21	1261
1292.36	1241.75
1290.51	1242
1288.66	1221
1286.81	1232.75
1284.96	1234.75
1283.11	1236.25
1281.26	1217.75
1279.4	1207
1277.55	1235.5
1275.7	1232.25
1273.84	1229.5
1271.99	1225.75
1270.13	1228.25
1268.28	1224
1266.42	1224.5
1264.56	1227
1262.71	1219
1260.85	1221.25
1258.99	1207.75
1257.13	1219.5
1255.27	1217.75
1253.41	1200.25
1251.56	1197.25
1249.7	1204.75
1247.83	1196.5
1245.97	1193.75
1244.11	1189.5
1242.25	1187.5
1240.39	1189.25
1238.52	1187.25
1236.66	1192
1234.8	1181.5
1232.93	1192
1231.07	1177.5
1229.2	1172.75
1227.34	1183.25
1225.47	1169.5
1223.6	1158
1221.74	1178.75
1219.87	1171
1218	1175.75
1216.13	1177.5
1214.26	1173
1212.39	1164.5
1210.53	1170.5
1208.65	1179
1206.78	1172
1204.91	1169.5
1203.04	1160.25
1201.17	1163
1199.3	1165
1197.42	1166.25
1195.55	1153.5
1193.68	1160.5
1191.8	1162.25
1189.93	1159.25
1188.05	1159.5
1186.17	1153.25
1184.3	1164.75
1182.42	1158.5
1180.54	1161.5
1178.67	1159.5
1176.79	1167.25
1174.91	1154.75
1173.03	1150.75
1171.15	1155.5
1169.27	1165.5
1167.39	1152.25
1165.51	1164.75
1163.63	1160.75
1161.75	1147.5
1159.86	1162.25
1157.98	1159.25
1156.1	1148
1154.21	1164.5
1152.33	1160.5
1150.44	1152
1148.56	1147.5
1146.67	1158.75
1144.79	1154
1142.9	1150
1141.01	1160
1139.12	1160.75
1137.24	1167.5
1135.35	1172.25
1133.46	1171
1131.57	1181
1129.68	1179.25
1127.79	1169.75
1125.9	1174.5
1124.01	1172
1122.12	1165
1120.22	1164.25
1118.33	1163
1116.44	1159.25
1114.54	1147
1112.65	1153.75
1110.75	1149.25
1108.86	1156.75
1106.96	1168
1105.07	1169.75
1103.17	1161.75
1101.27	1166.5
1099.38	1161.25
1097.48	1176.75
1095.58	1165
1093.68	1172
1091.78	1178.75
1089.88	1186.75
1087.98	1191
1086.08	1180.75
1084.18	1185.5
1082.28	1186
1080.38	1183
1078.47	1178
1076.57	1171.25
1074.67	1166.5
1072.76	1170.25
1070.86	1179.5
1068.95	1170
1067.05	1173.5
1065.14	1189.25
1063.24	1179.5
1061.33	1177.75
1059.42	1176.25
1057.51	1160.5
1055.6	1161
1053.7	1168.5
1051.79	1144.5
1049.88	1156.25
1047.97	1149
1046.06	1148.5
1044.14	1141
1042.23	1144
1040.32	1163.75
1038.41	1158
1036.5	1159
1034.58	1151.5
1032.67	1159
1030.75	1146.25
1028.84	1145.25
1026.92	1156.75
1025.01	1151.25
1023.09	1146.75
1021.17	1155.75
1019.26	1153
1017.34	1162.75
1015.42	1145.25
1013.5	1153.75
1011.58	1157
1009.66	1151.75
1007.74	1145.5
1005.82	1152.5
1003.9	1155.25
1001.98	1145.5
1000.06	1158
998.134	1152.25
996.212	1176.75
994.288	1158
992.364	1178.75
990.44	1181
988.515	1178.5
986.589	1196.25
984.663	1210.5
982.737	1202.25
980.81	1207.25
978.883	1213.5
976.955	1208
975.027	1218.5
973.098	1216.5
971.169	1211.75
969.239	1221.75
967.308	1211.25
965.378	1216.25
963.447	1216.75
961.516	1206.25
959.583	1225.75
957.65	1215
955.718	1228.5
953.784	1234.25
951.85	1221
949.916	1234.75
947.981	1222.75
946.045	1231
944.109	1246.75
942.173	1255.5
940.236	1249
938.298	1231
936.36	1228.75
934.422	1227.75
932.484	1203.5
930.544	1185.5
928.604	1185.25
926.664	1159
924.724	1167
922.782	1166.25
920.84	1153.75
918.898	1157
916.955	1150
915.012	1152.25
913.068	1159.5
911.124	1148.75
909.18	1149.25
907.235	1156.25
905.289	1162
903.343	1155
901.397	1151
899.45	1160
897.502	1157
895.554	1157.5
893.605	1165
891.657	1157.25
889.707	1159
887.758	1167.25
885.807	1159.5
883.856	1156.75
881.905	1169
879.953	1157.25
878.001	1158.5
876.048	1170.75
874.094	1168.75
872.14	1156
870.186	1158.5
868.232	1160.25
866.276	1168.25
864.321	1168.25
862.365	1164.25
860.408	1161.75
858.451	1156.75
856.493	1158.5
854.535	1155.25
852.576	1158.75
850.617	1156.25
848.658	1160
846.698	1148.5
844.737	1155.25
842.776	1154.75
840.814	1150
838.852	1145.25
836.89	1145
834.927	1137
832.963	1148.25
830.999	1134.25
829.035	1134.25
827.07	1135.25
825.105	1139.5
823.139	1137.5
821.172	1126.75
819.206	1135
817.238	1114.25
815.27	1127.25
813.301	1128.75
811.333	1129.75
809.363	1127.75
807.394	1122
805.424	1130
803.453	1122.25
801.482	1124
799.509	1105.75
797.538	1105
795.565	1116.25
793.592	1119.75
791.618	1109.5
789.643	1101
787.669	1112
785.693	1114.5
783.718	1113
781.742	1105.5
779.765	1121.25
777.788	1121.75
775.811	1107.5
773.832	1106.5
771.853	1109
769.875	1108.25
767.895	1107.5
765.915	1101.5
763.934	1112
761.953	1107.5
759.972	1111
757.99	1104
756.007	1110.75
754.024	1111.75
752.041	1094.5
750.056	1116.75
748.072	1112.5
746.087	1106.75
744.102	1110.25
742.116	1113
740.13	1107.5
738.143	1111
736.155	1112
734.167	1097
732.179	1108.5
730.19	1108.25
728.2	1112.5
726.21	1112.5
724.22	1111
722.229	1108
720.237	1107.75
718.246	1108.5
716.253	1104.5
714.26	1113
712.267	1105.25
710.273	1098.25
708.279	1102.5
706.284	1103.5
704.289	1094.5
702.293	1106.75
700.296	1106.25
698.3	1105
696.303	1102.5
694.305	1113.5
692.307	1116
690.307	1103.5
688.308	1105.5
686.309	1101.75
684.308	1100.25
682.308	1108
680.306	1115
678.304	1114.25
676.302	1113
674.3	1112.25
672.296	1124.75
670.293	1105.5
668.289	1109
666.284	1111.25
664.278	1111.75
662.273	1116.5
660.266	1113.25
658.26	1120.75
656.252	1104.75
654.244	1112.5
652.237	1111
650.227	1107
648.218	1102
646.209	1118.75
644.198	1110.25
642.188	1118.25
640.177	1117.5
638.165	1114.5
636.153	1112.25
634.14	1118.75
632.128	1118
630.113	1121.5
628.099	1123.25
626.085	1117.25
624.07	1113
622.054	1131
620.038	1124.25
618.021	1119.75
616.004	1123
613.986	1121.25
611.968	1108.25
609.949	1123.25
607.93	1109.25
605.911	1118.25
603.891	1118.5
601.87	1117.5
599.848	1118
597.827	1116.5
595.805	1118.5
593.782	1124.75
591.759	1112.25
589.735	1110.25
587.711	1114.75
585.687	1105
583.661	1115.5
581.636	1122.25
579.609	1123
577.583	1120.5
575.555	1118.5
573.527	1128.25
571.5	1112.25
569.471	1120.5
567.441	1122.25
565.412	1112
563.382	1127
561.351	1127.5
559.32	1129.25
557.289	1122.75
555.257	1133
553.223	1147.25
551.19	1130.75
549.157	1146.5
547.122	1163.75
545.088	1166
543.053	1183
541.017	1191.5
538.981	1234.75
536.943	1264.75
534.907	1338.75
532.869	1456.5
530.831	1648.5
528.792	1971
526.752	2522.25
524.713	3246.25
522.673	3765
520.632	3753.75
518.591	3221
516.549	2602.25
514.507	2052.5
512.464	1693.25
510.42	1465.25
508.377	1328.5
506.332	1259.5
504.288	1214
502.242	1216
500.196	1181
498.15	1180.25
496.104	1174.5
494.056	1167
492.008	1156.25
489.96	1155.75
487.911	1149.25
485.862	1146.25
483.812	1146.25
481.761	1143.5
479.71	1143.5
477.659	1153
475.607	1145.25
473.555	1147.75
471.502	1125.5
469.448	1143.75
467.395	1129
465.34	1131.5
463.285	1124.5
461.23	1138.75
459.174	1140.75
457.118	1138.75
455.061	1131.75
453.003	1141.75
450.945	1147.75
448.887	1155.75
446.828	1143.5
444.768	1147.25
442.708	1150.25
440.647	1153.5
438.587	1161
436.525	1157.5
434.463	1150
432.4	1146
430.337	1162
428.274	1166.25
426.21	1167.75
424.145	1153.5
422.079	1160
420.014	1148.75
417.948	1162.25
415.882	1157
413.814	1165.5
411.746	1151.5
409.679	1161
407.609	1161.25
405.54	1158.25
403.47	1167
401.401	1158.25
399.329	1165.5
397.258	1167.75
395.187	1164
393.114	1159
391.041	1164.5
388.968	1159.5
386.895	1157.5
384.82	1161.75
382.745	1173.5
380.67	1173
378.594	1164.75
376.517	1169
374.44	1170.75
372.363	1172.75
370.286	1171
368.207	1176.25
366.128	1177.5
364.049	1175
361.969	1187.25
359.888	1175
357.807	1186.5
355.725	1178
353.643	1182
351.561	1178.5
349.477	1178
347.394	1188
345.31	1192.25
343.226	1197.25
341.141	1195.75
339.055	1190.25
336.968	1197
334.882	1207.5
332.795	1207.5
330.707	1200.75
328.618	1208.75
326.53	1219.5
324.44	1228.25
322.351	1224.5
320.26	1235.5
318.17	1238
316.078	1245.25
313.987	1259.25
311.895	1264.75
309.802	1282
307.708	1297
305.614	1302.25
303.52	1294.25
301.425	1285
299.329	1285.25
297.233	1266.5
295.137	1256.5
293.039	1269.75
290.942	1251.5
288.844	1239.25
286.745	1253.25
284.647	1243.5
282.546	1233
280.446	1245.5
278.346	1229.5
276.245	1233.75
274.143	1235
272.041	1234
269.939	1228
267.835	1242
265.731	1236.5
263.627	1230.25
261.522	1246.5
259.417	1243
257.311	1239.5
255.204	1248.75
253.098	1250.75
250.99	1242.25
248.882	1244.25
246.774	1248.75
244.664	1254.5
242.555	1237.5
240.445	1250.25
238.334	1251.5
236.223	1267.25
234.112	1262.25
232	1258.75
229.888	1266
227.775	1265.5
225.661	1258.75
223.546	1271.5
221.431	1267
219.316	1264.75
217.201	1283.25
215.084	1268.75
212.967	1265
210.85	1272.5
208.732	1275
206.614	1279.5
204.495	1287.25
202.375	1283.25
200.256	1267.25
198.135	1285.25
196.014	1287.5
193.893	1284
191.771	1296
189.648	1286.5
187.525	1290.25
185.401	1300.25
183.277	1313.25
181.152	1308.75
179.027	1298.25
176.901	1319.5
174.775	1316
172.648	1319.5
170.521	1321.75
168.393	1321.5
166.265	1318.5
164.136	1340
162.007	1343.75
159.876	1350
157.746	1360.5
155.615	1357.25
153.483	1375.75
151.351	1367.25
149.219	1378.25
147.086	1392.5
144.952	1402.75
142.818	1416.75
140.684	1415.5
138.548	1436.5
136.413	1434.75
134.276	1447
132.139	1462.5
130.002	1474.5
127.864	1486.25
125.725	1499.25
123.587	1501.25
121.447	1532.5
119.307	1554.75
117.166	1553.25
115.026	1565.25
112.885	1584.5
110.743	1603.75
108.6	1610.25
106.456	1618
104.313	1629
102.169	1619
100.023	1580.75
97.8789	1542.5
95.7328	1493.75
93.5869	1447
91.4392	1365
89.2919	1314.25
87.1447	1257.5
84.9959	1200.25
