3528.51	205
3527.23	212
3525.95	221
3524.67	221
3523.39	229
3522.1	242.5
3520.82	233.5
3519.54	232
3518.26	217.5
3516.97	226
3515.69	235.5
3514.4	234
3513.12	237
3511.84	229.5
3510.55	237
3509.26	249.5
3507.98	247
3506.69	248.5
3505.41	248
3504.12	262.5
3502.83	264
3501.54	258
3500.26	263
3498.97	261
3497.68	277.5
3496.39	271
3495.1	280
3493.81	272
3492.52	289
3491.23	302
3489.94	301.5
3488.65	305.5
3487.36	308.5
3486.07	314
3484.78	323.5
3483.49	328
3482.19	316.5
3480.9	332
3479.61	338
3478.31	326
3477.02	340.5
3475.73	346
3474.43	341
3473.14	353
3471.84	360.5
3470.54	353
3469.25	360
3467.95	369
3466.66	350
3465.36	346
3464.06	379.5
3462.76	378.5
3461.46	359
3460.17	360
3458.87	385
3457.57	370.5
3456.27	403.5
3454.97	388
3453.67	378
3452.37	391
3451.07	380.5
3449.77	399
3448.47	379
3447.16	425
3445.86	413.5
3444.56	432.5
3443.26	420
3441.95	434.5
3440.65	449.5
3439.35	455.5
3438.04	462.5
3436.74	464.5
3435.43	459.5
3434.13	483.5
3432.82	495
3431.52	482.5
3430.21	512.5
3428.9	495
3427.6	528
3426.29	551.5
3424.98	559.5
3423.67	545
3422.36	541.5
3421.06	570
3419.75	568
3418.44	562.5
3417.13	574.5
3415.82	605
3414.51	592
3413.2	609
3411.88	582
3410.57	616
3409.26	624
3407.95	617
3406.64	628
3405.32	613.5
3404.01	620
3402.7	630.5
3401.38	661.5
3400.07	636
3398.75	661.5
3397.44	677.5
3396.12	648
3394.81	649.5
3393.49	671
3392.18	681
3390.86	682.5
3389.54	689
3388.23	724
3386.91	718.5
3385.59	724
3384.27	722.5
3382.95	731.5
3381.63	713
3380.31	745
3378.99	741
3377.67	767.5
3376.35	747
3375.03	773.5
3373.71	758.5
3372.39	781
3371.07	799
3369.75	796.5
3368.42	794
3367.1	810.5
3365.78	808.5
3364.45	838
3363.13	832
3361.81	813
3360.48	855
3359.16	854.5
3357.83	841.5
3356.51	864
3355.18	847
3353.85	853.5
3352.53	881.5
3351.2	879
3349.87	888
3348.54	877
3347.22	885.5
3345.89	878
3344.56	859
3343.23	866.5
3341.9	910
3340.57	906
3339.24	890.5
3337.91	910
3336.58	903
3335.25	899
3333.92	931
3332.58	899.5
3331.25	907.5
3329.92	918.5
3328.59	940.5
3327.25	953
3325.92	948.5
3324.58	952.5
3323.25	937.5
3321.92	947
3320.58	967
3319.25	965.5
3317.91	976
3316.57	955
3315.24	954.5
3313.9	982
3312.56	1026
3311.23	968.5
3309.89	1008
3308.55	1022.5
3307.21	1015.5
3305.87	1026
3304.53	1006
3303.19	1028.5
3301.85	1035
3300.51	1015.5
3299.17	1015
3297.83	1040
3296.49	1045
3295.15	1048.5
3293.81	1046.5
3292.46	1044.5
3291.12	1040.5
3289.78	1069
3288.43	1073
3287.09	1061.5
3285.75	1048
3284.4	1100.5
3283.06	1078
3281.71	1097.5
3280.37	1075.5
3279.02	1095.5
3277.67	1090
3276.33	1092
3274.98	1108.5
3273.63	1087.5
3272.28	1123
3270.94	1153
3269.59	1136.5
3268.24	1169
3266.89	1173.5
3265.54	1178
3264.19	1185.5
3262.84	1225.5
3261.49	1236.5
3260.14	1246.5
3258.79	1281
3257.44	1318
3256.08	1327.5
3254.73	1344.5
3253.38	1359.5
3252.03	1407
3250.67	1442
3249.32	1449
3247.96	1507.5
3246.61	1536
3245.26	1545
3243.9	1587
3242.54	1631
3241.19	1720.5
3239.83	1736.5
3238.48	1786.5
3237.12	1828.5
3235.76	1864.5
3234.41	1927.5
3233.05	1956
3231.69	1986.5
3230.33	2053
3228.97	2080
3227.61	2134
3226.25	2174
3224.89	2183
3223.53	2221.5
3222.17	2299.5
3220.81	2306.5
3219.45	2372.5
3218.09	2356.5
3216.72	2380.5
3215.36	2409.5
3214	2428
3212.63	2441.5
3211.27	2479.5
3209.91	2439
3208.54	2475.5
3207.18	2503
3205.81	2515
3204.45	2587
3203.08	2547
3201.71	2589.5
3200.35	2595
3198.98	2578.5
3197.61	2578.5
3196.25	2620.5
3194.88	2645
3193.51	2636
3192.14	2655.5
3190.77	2639
3189.4	2675.5
3188.03	2674
3186.66	2662
3185.29	2688
3183.92	2724.5
3182.55	2710
3181.18	2784.5
3179.81	2756.5
3178.44	2802.5
3177.06	2819
3175.69	2819
3174.32	2841.5
3172.94	2849.5
3171.57	2859
3170.2	2908
3168.82	2919
3167.45	2950.5
3166.07	2928.5
3164.69	2966.5
3163.32	3011
3161.94	3018
3160.56	3076.5
3159.19	3053
3157.81	3066
3156.43	3119.5
3155.05	3193
3153.67	3159.5
3152.3	3171
3150.92	3232.5
3149.54	3229
3148.16	3244
3146.78	3330
3145.4	3246.5
3144.01	3335.5
3142.63	3307.5
3141.25	3339
3139.87	3366.5
3138.49	3374
3137.1	3467
3135.72	3435
3134.34	3467
3132.95	3486
3131.57	3519
3130.18	3583.5
3128.8	3612.5
3127.41	3574.5
3126.03	3613.5
3124.64	3619.5
3123.25	3670.5
3121.87	3668.5
3120.48	3749.5
3119.09	3743
3117.7	3759.5
3116.32	3761.5
3114.93	3725.5
3113.54	3730
3112.15	3809
3110.76	3900
3109.37	3863.5
3107.98	3865.5
3106.59	3879.5
3105.2	3885
3103.8	3907.5
3102.41	3941
3101.02	3921.5
3099.63	3992
3098.23	3983
3096.84	3987
3095.45	4005
3094.05	3967.5
3092.66	4096.5
3091.26	4054.5
3089.87	4058
3088.47	4087
3087.08	4086
3085.68	4078
3084.28	4123.5
3082.89	4141
3081.49	4093
3080.09	4149
3078.69	4163.5
3077.3	4177.5
3075.9	4189.5
3074.5	4211.5
3073.1	4163.5
3071.7	4193
3070.3	4206.5
3068.9	4241
3067.5	4183.5
3066.09	4247
3064.69	4317
3063.29	4300
3061.89	4281.5
3060.48	4228
3059.08	4270.5
3057.68	4274.5
3056.27	4301.5
3054.87	4302.5
3053.46	4361.5
3052.06	4343.5
3050.65	4402
3049.25	4380
3047.84	4424
3046.44	4395.5
3045.03	4432.5
3043.62	4446
3042.21	4467.5
3040.81	4474
3039.4	4477.5
3037.99	4481
3036.58	4505.5
3035.17	4494
3033.76	4507
3032.35	4497.5
3030.94	4571.5
3029.53	4529
3028.12	4540
3026.71	4550
3025.29	4563.5
3023.88	4591
3022.47	4557
3021.06	4636
3019.64	4646
3018.23	4598
3016.82	4625.5
3015.4	4623
3013.99	4614.5
3012.57	4609
3011.15	4636.5
3009.74	4643.5
3008.32	4691.5
3006.91	4719
3005.49	4690.5
3004.07	4708
3002.65	4722.5
3001.24	4739.5
2999.82	4723.5
2998.4	4751
2996.98	4760.5
2995.56	4796
2994.14	4856
2992.72	4866.5
2991.3	4869
2989.88	4923.5
2988.46	4986.5
2987.03	4981.5
2985.61	4960
2984.19	4960
2982.77	5092
2981.34	5043.5
2979.92	5089
2978.49	5088
2977.07	5123
2975.65	5189.5
2974.22	5201.5
2972.79	5189.5
2971.37	5200
2969.94	5251
2968.52	5272.5
2967.09	5321
2965.66	5260.5
2964.23	5307
2962.81	5301.5
2961.38	5302.5
2959.95	5311
2958.52	5369.5
2957.09	5343
2955.66	5324
2954.23	5420.5
2952.8	5326
2951.37	5293.5
2949.94	5425
2948.5	5371
2947.07	5433
2945.64	5370.5
2944.21	5439.5
2942.77	5445
2941.34	5451
2939.91	5461.5
2938.47	5449
2937.04	5449
2935.6	5539.5
2934.17	5487.5
2932.73	5567
2931.29	5590
2929.86	5593.5
2928.42	5551
2926.98	5579
2925.55	5619.5
2924.11	5580.5
2922.67	5618.5
2921.23	5652
2919.79	5686
2918.35	5620
2916.91	5626.5
2915.47	5646
2914.03	5606
2912.59	5733.5
2911.15	5677
2909.71	5686.5
2908.26	5649
2906.82	5702.5
2905.38	5771.5
2903.94	5716
2902.49	5713.5
2901.05	5703
2899.6	5736
2898.16	5723.5
2896.71	5818
2895.27	5751.5
2893.82	5706
2892.38	5792.5
2890.93	5750
2889.48	5807.5
2888.03	5783.5
2886.59	5781
2885.14	5837
2883.69	5873
2882.24	5826.5
2880.79	5876
2879.34	5841.5
2877.89	5824.5
2876.44	5878.5
2874.99	5869.5
2873.54	5819
2872.09	5871.5
2870.64	5872.5
2869.18	5899.5
2867.73	5898.5
2866.28	5919.5
2864.83	5924
2863.37	5926.5
2861.92	5906
2860.46	5976
2859.01	5891
2857.55	5885.5
2856.1	5886
2854.64	5912
2853.19	5913.5
2851.73	5926
2850.27	5935.5
2848.81	5913.5
2847.36	5941
2845.9	5867
2844.44	5972
2842.98	5937.5
2841.52	5954
2840.06	5959
2838.6	5890
2837.14	5910.5
2835.68	5856
2834.22	5930.5
2832.76	5928.5
2831.3	5915.5
2829.83	5910
2828.37	5874.5
2826.91	5893
2825.44	5887
2823.98	5868.5
2822.52	5895
2821.05	5866.5
2819.59	5884
2818.12	5866.5
2816.66	5871
2815.19	5845
2813.72	5831.5
2812.26	5771
2810.79	5801.5
2809.32	5817.5
2807.85	5847.5
2806.38	5784
2804.92	5798
2803.45	5755.5
2801.98	5769.5
2800.51	5760.5
2799.04	5796
2797.57	5750
2796.1	5765
2794.62	5692
2793.15	5735
2791.68	5764.5
2790.21	5792
2788.73	5764
2787.26	5762.5
2785.79	5732
2784.31	5727.5
2782.84	5668.5
2781.36	5724
2779.89	5775.5
2778.41	5778.5
2776.94	5738.5
2775.46	5763
2773.99	5796
2772.51	5847
2771.03	5791.5
2769.55	5885.5
2768.07	5841
2766.6	5884
2765.12	5824
2763.64	5849.5
2762.16	5826
2760.68	5838.5
2759.2	5836.5
2757.72	5857
2756.24	5834.5
2754.75	5800.5
2753.27	5789
2751.79	5842.5
2750.31	5804
2748.82	5762.5
2747.34	5778
2745.86	5773.5
2744.37	5748.5
2742.89	5781.5
2741.4	5843.5
2739.92	5743.5
2738.43	5786.5
2736.94	5734.5
2735.46	5778.5
2733.97	5784
2732.48	5774.5
2731	5773.5
2729.51	5771
2728.02	5731.5
2726.53	5759
2725.04	5698
2723.55	5683
2722.06	5700
2720.57	5740.5
2719.08	5724
2717.59	5751
2716.1	5713.5
2714.61	5688.5
2713.11	5775
2711.62	5682
2710.13	5708.5
2708.64	5704
2707.14	5723.5
2705.65	5740
2704.15	5651
2702.66	5663
2701.16	5679.5
2699.67	5669.5
2698.17	5661.5
2696.67	5582.5
2695.18	5622
2693.68	5622
2692.18	5626
2690.69	5613.5
2689.19	5651
2687.69	5610.5
2686.19	5543
2684.69	5547.5
2683.19	5615.5
2681.69	5561.5
2680.19	5557
2678.69	5524.5
2677.19	5551
2675.68	5525.5
2674.18	5501.5
2672.68	5550.5
2671.18	5474.5
2669.67	5448
2668.17	5483
2666.66	5473
2665.16	5495
2663.66	5419
2662.15	5486.5
2660.64	5468.5
2659.14	5463
2657.63	5373
2656.13	5467
2654.62	5461
2653.11	5425.5
2651.6	5394
2650.09	5395.5
2648.58	5328.5
2647.08	5380
2645.57	5331.5
2644.06	5344.5
2642.55	5356
2641.04	5300.5
2639.52	5261.5
2638.01	5278.5
2636.5	5239.5
2634.99	5243.5
2633.48	5266
2631.96	5234
2630.45	5231.5
2628.94	5158.5
2627.42	5266
2625.91	5211.5
2624.39	5212
2622.88	5210.5
2621.36	5178.5
2619.85	5118
2618.33	5241
2616.81	5202
2615.3	5184.5
2613.78	5169.5
2612.26	5186.5
2610.74	5189
2609.22	5181.5
2607.7	5094
2606.18	5165
2604.66	5087.5
2603.14	5119
2601.62	5035.5
2600.1	5049.5
2598.58	5000
2597.06	4964.5
2595.54	4948.5
2594.01	4946.5
2592.49	4957.5
2590.97	5036.5
2589.44	4910
2587.92	4954
2586.39	4985
2584.87	4943
2583.34	4956
2581.82	4987.5
2580.29	4939
2578.76	4935.5
2577.24	4876
2575.71	4882.5
2574.18	4955
2572.65	4889.5
2571.13	4902
2569.6	4927
2568.07	4885.5
2566.54	4889
2565.01	4882.5
2563.48	4902.5
2561.95	4910.5
2560.42	4883.5
2558.88	4857
2557.35	4845
2555.82	4863
2554.29	4804
2552.75	4806
2551.22	4805.5
2549.69	4683.5
2548.15	4765
2546.62	4743
2545.08	4784.5
2543.55	4742
2542.01	4729.5
2540.47	4699
2538.94	4685
2537.4	4697
2535.86	4685
2534.33	4643
2532.79	4650
2531.25	4626.5
2529.71	4642
2528.17	4586
2526.63	4573.5
2525.09	4651.5
2523.55	4590
2522.01	4566.5
2520.47	4527.5
2518.92	4565.5
2517.38	4537
2515.84	4518
2514.3	4426.5
2512.75	4458
2511.21	4511
2509.67	4444
2508.12	4429.5
2506.58	4404
2505.03	4414.5
2503.49	4415
2501.94	4326.5
2500.39	4387
2498.85	4358.5
2497.3	4262
2495.75	4325
2494.2	4317.5
2492.65	4280.5
2491.11	4236.5
2489.56	4280
2488.01	4277
2486.46	4214.5
2484.91	4271.5
2483.36	4246.5
2481.8	4230.5
2480.25	4224.5
2478.7	4189.5
2477.15	4221.5
2475.6	4168
2474.04	4168
2472.49	4109
2470.93	4081.5
2469.38	4049.5
2467.83	4095
2466.27	4058.5
2464.71	4030.5
2463.16	4014
2461.6	3989.5
2460.05	3982.5
2458.49	3953
2456.93	3940.5
2455.37	3951.5
2453.81	3906
2452.26	3900.5
2450.7	3840.5
2449.14	3864.5
2447.58	3796
2446.02	3832.5
2444.46	3806.5
2442.9	3831.5
2441.33	3771
2439.77	3839.5
2438.21	3806
2436.65	3722.5
2435.08	3802
2433.52	3768
2431.96	3735
2430.39	3745
2428.83	3730.5
2427.26	3710
2425.7	3740.5
2424.13	3668
2422.56	3678.5
2421	3698.5
2419.43	3662
2417.86	3615.5
2416.3	3639
2414.73	3664
2413.16	3632
2411.59	3583.5
2410.02	3654
2408.45	3603.5
2406.88	3614
2405.31	3622.5
2403.74	3608
2402.17	3616
2400.6	3587.5
2399.02	3612
2397.45	3558.5
2395.88	3578
2394.3	3527.5
2392.73	3546.5
2391.16	3572
2389.58	3553
2388.01	3515.5
2386.43	3543
2384.86	3536
2383.28	3481.5
2381.7	3487.5
2380.13	3515
2378.55	3504
2376.97	3504.5
2375.39	3511.5
2373.81	3527.5
2372.23	3515
2370.65	3480
2369.07	3475.5
2367.49	3466.5
2365.91	3425
2364.33	3430.5
2362.75	3478.5
2361.17	3430
2359.59	3437.5
2358.01	3427.5
2356.42	3370
2354.84	3382.5
2353.25	3408
2351.67	3399
2350.09	3333
2348.5	3361.5
2346.92	3329
2345.33	3357
2343.74	3377
2342.16	3334.5
2340.57	3406
2338.98	3358
2337.39	3331.5
2335.81	3305
2334.22	3248
2332.63	3338.5
2331.04	3301.5
2329.45	3280.5
2327.86	3305
2326.27	3243
2324.68	3245
2323.09	3227
2321.49	3207
2319.9	3236.5
2318.31	3224.5
2316.72	3144
2315.12	3147
2313.53	3181
2311.93	3183
2310.34	3127.5
2308.74	3131.5
2307.15	3113.5
2305.55	3161
2303.96	3124
2302.36	3051
2300.76	3067
2299.17	3048
2297.57	3068
2295.97	3056
2294.37	3087
2292.77	3071.5
2291.17	2978
2289.57	2993
2287.97	2998
2286.37	2946.5
2284.77	2995
2283.17	2980
2281.57	2970
2279.96	3033.5
2278.36	2978.5
2276.76	2937.5
2275.15	2994
2273.55	2983
2271.95	2929
2270.34	2923
2268.74	2909.5
2267.13	2914.5
2265.52	2902.5
2263.92	2870.5
2262.31	2908.5
2260.7	2844.5
2259.1	2888
2257.49	2836.5
2255.88	2798.5
2254.27	2811
2252.66	2811
2251.05	2825
2249.44	2822
2247.83	2852.5
2246.22	2830
2244.61	2800.5
2243	2808
2241.39	2780
2239.77	2812
2238.16	2794.5
2236.55	2753
2234.93	2772.5
2233.32	2740.5
2231.7	2744
2230.09	2715.5
2228.47	2743
2226.86	2703
2225.24	2643
2223.63	2686.5
2222.01	2661
2220.39	2657.5
2218.77	2630.5
2217.16	2691
2215.54	2623
2213.92	2634.5
2212.3	2631.5
2210.68	2608.5
2209.06	2562
2207.44	2584
2205.82	2582.5
2204.19	2543.5
2202.57	2516
2200.95	2541
2199.33	2553.5
2197.7	2529
2196.08	2547.5
2194.46	2526.5
2192.83	2508
2191.21	2487.5
2189.58	2494
2187.96	2484
2186.33	2511
2184.7	2456.5
2183.08	2469.5
2181.45	2442.5
2179.82	2464.5
2178.19	2473
2176.57	2421
2174.94	2416
2173.31	2409.5
2171.68	2380
2170.05	2370.5
2168.42	2394
2166.79	2391
2165.16	2367.5
2163.52	2348.5
2161.89	2372.5
2160.26	2327.5
2158.63	2311
2156.99	2340.5
2155.36	2324.5
2153.73	2291
2152.09	2294.5
2150.46	2267.5
2148.82	2285
2147.18	2272.5
2145.55	2255
2143.91	2244.5
2142.27	2241
2140.64	2204
2139	2231
2137.36	2250
2135.72	2226
2134.08	2206
2132.44	2192.5
2130.8	2150
2129.16	2158
2127.52	2132.5
2125.88	2124
2124.24	2115
2122.6	2086.5
2120.95	2099.5
2119.31	2074
2117.67	2103
2116.02	2074.5
2114.38	2069.5
2112.74	2075
2111.09	2056
2109.45	2072
2107.8	2004
2106.15	2024.5
2104.51	2033.5
2102.86	1996
2101.21	1998
2099.56	1987.5
2097.92	1973.5
2096.27	1989.5
2094.62	1968
2092.97	1944.5
2091.32	1981.5
2089.67	1969.5
2088.02	1968.5
2086.37	1944.5
2084.72	1933.5
2083.06	1963.5
2081.41	1959
2079.76	1967
2078.1	1974.5
2076.45	1925
2074.8	1957
2073.14	1960
2071.49	1958.5
2069.83	1893
2068.18	1900.5
2066.52	1926
2064.86	1907
2063.21	1867.5
2061.55	1874.5
2059.89	1900
2058.23	1889.5
2056.57	1890
2054.92	1880
2053.26	1858.5
2051.6	1844
2049.94	1861
2048.27	1857
2046.61	1825
2044.95	1872.5
2043.29	1825.5
2041.63	1837.5
2039.97	1778
2038.3	1787.5
2036.64	1803
2034.97	1735.5
2033.31	1778
2031.64	1771.5
2029.98	1739.5
2028.31	1749.5
2026.65	1744.5
2024.98	1722.5
2023.31	1707
2021.65	1685
2019.98	1706
2018.31	1646
2016.64	1710
2014.97	1690
2013.3	1674
2011.63	1664
2009.96	1665.5
2008.29	1653.5
2006.62	1644.5
2004.95	1638.5
2003.28	1611.5
2001.6	1614.5
1999.93	1623
1998.26	1630.5
1996.58	1643
1994.91	1645.5
1993.24	1616.5
1991.56	1605
1989.89	1620
1988.21	1585
1986.53	1584
1984.86	1578
1983.18	1593
1981.5	1569
1979.82	1570
1978.15	1555
1976.47	1555
1974.79	1526.5
1973.11	1541.5
1971.43	1483
1969.75	1539.5
1968.07	1534.5
1966.38	1508.5
1964.7	1492.5
1963.02	1491
1961.34	1486
1959.66	1483.5
1957.97	1448
1956.29	1456
1954.6	1460.5
1952.92	1440.5
1951.23	1438
1949.55	1458.5
1947.86	1447
1946.18	1437
1944.49	1434
1942.8	1427
1941.11	1406.5
1939.43	1412.5
1937.74	1414
1936.05	1421
1934.36	1385
1932.67	1401
1930.98	1381
1929.29	1340.5
1927.6	1373
1925.91	1338
1924.21	1347.5
1922.52	1328
1920.83	1323.5
1919.14	1330
1917.44	1337
1915.75	1339
1914.05	1343.5
1912.36	1334
1910.66	1313
1908.97	1306
1907.27	1315.5
1905.58	1292
1903.88	1307
1902.18	1255
1900.48	1271
1898.79	1240
1897.09	1241.5
1895.39	1236
1893.69	1258
1891.99	1268
1890.29	1227.5
1888.59	1209.5
1886.89	1217.5
1885.18	1216.5
1883.48	1221
1881.78	1196.5
1880.08	1177
1878.37	1172
1876.67	1189.5
1874.96	1184
1873.26	1151
1871.55	1172.5
1869.85	1162.5
1868.14	1166.5
1866.44	1147
1864.73	1145.5
1863.02	1152.5
1861.32	1132
1859.61	1127.5
1857.9	1103.5
1856.19	1115
1854.48	1107
1852.77	1118
1851.06	1106.5
1849.35	1099
1847.64	1102
1845.93	1108.5
1844.21	1064
1842.5	1090.5
1840.79	1091.5
1839.08	1101
1837.36	1061.5
1835.65	1084
1833.93	1047.5
1832.22	1084.5
1830.5	1044
1828.79	1056
1827.07	1051
1825.36	1042.5
1823.64	1024.5
1821.92	1032
1820.2	1027
1818.48	1014
1816.77	992
1815.05	1007.5
1813.33	987.5
1811.61	1004.5
1809.89	993.5
1808.16	1002.5
1806.44	1011
1804.72	988.5
1803	976
1801.28	985
1799.55	977.5
1797.83	979
1796.11	972
1794.38	954.5
1792.66	975.5
1790.93	936.5
1789.21	939.5
1787.48	947.5
1785.75	933.5
1784.03	936
1782.3	919.5
1780.57	924
1778.84	930
1777.11	924.5
1775.38	911.5
1773.66	921
1771.93	924
1770.19	917.5
1768.46	911.5
1766.73	894.5
1765	892.5
1763.27	915.5
1761.54	889
1759.8	913
1758.07	895.5
1756.34	918
1754.6	912
1752.87	896
1751.13	901.5
1749.4	913.5
1747.66	884
1745.92	905
1744.19	913.5
1742.45	882
1740.71	914
1738.97	892.5
1737.23	881.5
1735.49	883.5
1733.75	882.5
1732.01	867.5
1730.27	870.5
1728.53	839.5
1726.79	850.5
1725.05	854.5
1723.31	831
1721.57	846
1719.82	814
1718.08	797
1716.34	831
1714.59	813
1712.85	811
1711.1	801
1709.36	791.5
1707.61	808.5
1705.86	793.5
1704.12	792
1702.37	772.5
1700.62	786
1698.87	780.5
1697.12	759
1695.37	766
1693.62	762.5
1691.87	741.5
1690.12	758
1688.37	744
1686.62	732.5
1684.87	726.5
1683.12	745
1681.36	748.5
1679.61	725
1677.86	727
1676.1	762.5
1674.35	719
1672.59	754
1670.84	766.5
1669.08	756
1667.33	755
1665.57	778
1663.81	785.5
1662.06	800
1660.3	826.5
1658.54	826
1656.78	821.5
1655.02	826
1653.26	788
1651.5	776
1649.74	757
1647.98	749.5
1646.22	743
1644.46	750.5
1642.7	708
1640.93	705
1639.17	701.5
1637.41	678
1635.64	684.5
1633.88	673
1632.11	668.5
1630.35	670
1628.58	660
1626.81	662
1625.05	673
1623.28	665
1621.51	655.5
1619.75	640
1617.98	657.5
1616.21	628
1614.44	630.5
1612.67	624.5
1610.9	646.5
1609.13	636.5
1607.36	631
1605.58	632
1603.81	638
1602.04	625.5
1600.27	623
1598.49	628.5
1596.72	624
1594.95	615
1593.17	622.5
1591.4	618.5
1589.62	592.5
1587.84	617
1586.07	627.5
1584.29	618
1582.51	610
1580.74	593
1578.96	597.5
1577.18	588.5
1575.4	590
1573.62	586
1571.84	590
1570.06	577
1568.28	580
1566.5	563.5
1564.72	566.5
1562.93	576
1561.15	580
1559.37	575.5
1557.58	557
1555.8	576
1554.02	573.5
1552.23	566.5
1550.45	570
1548.66	569
1546.87	546
1545.09	559.5
1543.3	543
1541.51	513
1539.72	546.5
1537.94	533.5
1536.15	538
1534.36	527.5
1532.57	531.5
1530.78	537
1528.99	529
1527.2	543
1525.4	506.5
1523.61	536.5
1521.82	535
1520.03	532
1518.23	528.5
1516.44	518
1514.65	528
1512.85	503
1511.06	516.5
1509.26	520.5
1507.46	504
1505.67	505
1503.87	517
1502.07	509.5
1500.28	514.5
1498.48	502
1496.68	522.5
1494.88	525
1493.08	516
1491.28	518
1489.48	529
1487.68	518
1485.88	519
1484.08	535
1482.27	536
1480.47	530
1478.67	541
1476.86	561.5
1475.06	561.5
1473.25	580.5
1471.45	589.5
1469.64	611.5
1467.84	621.5
1466.03	627.5
1464.23	645
1462.42	659
1460.61	665
1458.8	705
1456.99	708
1455.18	709
1453.37	724.5
1451.56	726
1449.75	741.5
1447.94	739
1446.13	760.5
1444.32	806
1442.51	800.5
1440.7	797
1438.88	778
1437.07	719
1435.26	708
1433.44	663
1431.63	621.5
1429.81	580.5
1427.99	565.5
1426.18	556.5
1424.36	529.5
1422.54	524
1420.73	513.5
1418.91	498.5
1417.09	505.5
1415.27	476.5
1413.45	487
1411.63	453
1409.81	463.5
1407.99	461
1406.17	454.5
1404.35	447.5
1402.53	437
1400.7	444.5
1398.88	446.5
1397.06	435.5
1395.23	432
1393.41	447.5
1391.58	427
1389.76	423
1387.93	406
1386.11	421.5
1384.28	410.5
1382.45	428.5
1380.62	421.5
1378.8	415
1376.97	414.5
1375.14	433.5
1373.31	428.5
1371.48	420.5
1369.65	436
1367.82	424
1365.99	423
1364.16	402
1362.32	430.5
1360.49	418.5
1358.66	404.5
1356.82	411
1354.99	423
1353.16	410.5
1351.32	407
1349.48	421
1347.65	390
1345.81	394.5
1343.98	398
1342.14	413.5
1340.3	396
1338.46	402.5
1336.62	404
1334.79	407.5
1332.95	417.5
1331.11	426
1329.27	415
1327.42	430
1325.58	448
1323.74	432.5
1321.9	445.5
1320.06	459
1318.21	458
1316.37	452.5
1314.53	502
1312.68	523
1310.84	495
1308.99	541.5
1307.15	557.5
1305.3	574.5
1303.45	588
1301.61	573
1299.76	600.5
1297.91	584.5
1296.06	549
1294.21	520.5
1292.36	488.5
1290.51	481.5
1288.66	468.5
1286.81	480
1284.96	454
1283.11	447.5
1281.26	440
1279.4	445.5
1277.55	449
1275.7	448
1273.84	451.5
1271.99	455.5
1270.13	457
1268.28	458.5
1266.42	453.5
1264.56	463.5
1262.71	448.5
1260.85	431
1258.99	435.5
1257.13	408
1255.27	418.5
1253.41	384.5
1251.56	403.5
1249.7	370.5
1247.83	377
1245.97	372.5
1244.11	377
1242.25	364.5
1240.39	354
1238.52	364
1236.66	362
1234.8	345
1232.93	352
1231.07	335
1229.2	341
1227.34	322
1225.47	347
1223.6	332
1221.74	336
1219.87	322
1218	308.5
1216.13	328
1214.26	308
1212.39	311
1210.53	329
1208.65	317
1206.78	320
1204.91	321
1203.04	315
1201.17	309
1199.3	317
1197.42	292
1195.55	295
1193.68	304
1191.8	304
1189.93	309
1188.05	314
1186.17	320.5
1184.3	320
1182.42	315
1180.54	306.5
1178.67	302
1176.79	309.5
1174.91	309.5
1173.03	305
1171.15	284.5
1169.27	293.5
1167.39	307.5
1165.51	304.5
1163.63	301.5
1161.75	297.5
1159.86	304
1157.98	291
1156.1	295.5
1154.21	289.5
1152.33	310.5
1150.44	295
1148.56	305.5
1146.67	316
1144.79	305
1142.9	306
1141.01	300.5
1139.12	328
1137.24	323.5
1135.35	335.5
1133.46	350
1131.57	364.5
1129.68	362
1127.79	355.5
1125.9	359
1124.01	349
1122.12	352.5
1120.22	348.5
1118.33	342.5
1116.44	333
1114.54	334
1112.65	329.5
1110.75	330
1108.86	330
1106.96	348.5
1105.07	344
1103.17	346
1101.27	356
1099.38	381
1097.48	374.5
1095.58	382.5
1093.68	394.5
1091.78	372
1089.88	404
1087.98	395
1086.08	404
1084.18	425.5
1082.28	395
1080.38	409
1078.47	416.5
1076.57	401
1074.67	399
1072.76	375
1070.86	403
1068.95	387.5
1067.05	419.5
1065.14	434
1063.24	427
1061.33	403.5
1059.42	386
1057.51	373.5
1055.6	346.5
1053.7	351.5
1051.79	338
1049.88	345
1047.97	325
1046.06	317
1044.14	333
1042.23	332
1040.32	317.5
1038.41	315.5
1036.5	342
1034.58	325.5
1032.67	334.5
1030.75	323.5
1028.84	329.5
1026.92	341.5
1025.01	334
1023.09	320.5
1021.17	339.5
1019.26	334
1017.34	318
1015.42	336
1013.5	337
1011.58	329.5
1009.66	336.5
1007.74	335.5
1005.82	324
1003.9	334.5
1001.98	337.5
1000.06	346
998.134	345
996.212	348
994.288	356
992.364	372.5
990.44	395
988.515	392
986.589	406.5
984.663	427
982.737	421
980.81	438
978.883	446.5
976.955	446
975.027	464
973.098	466
971.169	464
969.239	443.5
967.308	469
965.378	466.5
963.447	472.5
961.516	436
959.583	469.5
957.65	478.5
955.718	484.5
953.784	489.5
951.85	490
949.916	478
947.981	500
946.045	503.5
944.109	506.5
942.173	513
940.236	509.5
938.298	501.5
936.36	479
934.422	474
932.484	423
930.544	413.5
928.604	409
926.664	390.5
924.724	367
922.782	366
920.84	338
918.898	365
916.955	342
915.012	353
913.068	353
911.124	358
909.18	347.5
907.235	344
905.289	351
903.343	363
901.397	355.5
899.45	359.5
897.502	365
895.554	386.5
893.605	387
891.657	394
889.707	394
887.758	376.5
885.807	363
883.856	388.5
881.905	361
879.953	375.5
878.001	377.5
876.048	404
874.094	399.5
872.14	380
870.186	383
868.232	380.5
866.276	387.5
864.321	376
862.365	381
860.408	379
858.451	379
856.493	365
854.535	358
852.576	362.5
850.617	361.5
848.658	361.5
846.698	356
844.737	364.5
842.776	348
840.814	371.5
838.852	352.5
836.89	348.5
834.927	342.5
832.963	345
830.999	322
829.035	338
827.07	313
825.105	315
823.139	326
821.172	319
819.206	304
817.238	296
815.27	289
813.301	312.5
811.333	290.5
809.363	291.5
807.394	290
805.424	280
803.453	283.5
801.482	290
799.509	260
797.538	265
795.565	262.5
793.592	251
791.618	261.5
789.643	251
787.669	252
785.693	248.5
783.718	255
781.742	246
779.765	251
777.788	237.5
775.811	255.5
773.832	249
771.853	256.5
769.875	251
767.895	251.5
765.915	243
763.934	250.5
761.953	256
759.972	246
757.99	242.5
756.007	253.5
754.024	236
752.041	241
750.056	245.5
748.072	258
746.087	262.5
744.102	239
742.116	256
740.13	261
738.143	251
736.155	242
734.167	258.5
732.179	260.5
730.19	258.5
728.2	263
726.21	259
724.22	260.5
722.229	262
720.237	252.5
718.246	247
716.253	250
714.26	255
712.267	242.5
710.273	256
708.279	237.5
706.284	250
704.289	246
702.293	246
700.296	250
698.3	248.5
696.303	252.5
694.305	249
692.307	258
690.307	254
688.308	248
686.309	252
684.308	265
682.308	258
680.306	255
678.304	255.5
676.302	258.5
674.3	269.5
672.296	266
670.293	259
668.289	271.5
666.284	267
664.278	263.5
662.273	265
660.266	273
658.26	266
656.252	282.5
654.244	271.5
652.237	265.5
650.227	275
648.218	284
646.209	267.5
644.198	260
642.188	274
640.177	256
638.165	274.5
636.153	284.5
634.14	283
632.128	274.5
630.113	290
628.099	290.5
626.085	273.5
624.07	276
622.054	287
620.038	296.5
618.021	279.5
616.004	312
613.986	285
611.968	292.5
609.949	293
607.93	303
605.911	284.5
603.891	282.5
601.87	292
599.848	284.5
597.827	296
595.805	290.5
593.782	284
591.759	288
589.735	268.5
587.711	276
585.687	274.5
583.661	261
581.636	274
579.609	286.5
577.583	286
575.555	278
573.527	289
571.5	285
569.471	302
567.441	284.5
565.412	289.5
563.382	304.5
561.351	302.5
559.32	301.5
557.289	319
555.257	329.5
553.223	328.5
551.19	344.5
549.157	363
547.122	374
545.088	397
543.053	429
541.017	451
538.981	512.5
536.943	583
534.907	729
532.869	965.5
530.831	1388.5
528.792	2015
526.752	3141
524.713	4610
522.673	5565.5
520.632	5338.5
518.591	4314
516.549	3011
514.507	2024
512.464	1359.5
510.42	934.5
508.377	704
506.332	566
504.288	502
502.242	459
500.196	427
498.15	416
496.104	393
494.056	383.5
492.008	380.5
489.96	376.5
487.911	368.5
485.862	366
483.812	354.5
481.761	353.5
479.71	343
477.659	351.5
475.607	343.5
473.555	349.5
471.502	347
469.448	329
467.395	347.5
465.34	339
463.285	339
461.23	333
459.174	334.5
457.118	334.5
455.061	343.5
453.003	342.5
450.945	357.5
448.887	368.5
446.828	348
444.768	367
442.708	358.5
440.647	356.5
438.587	384.5
436.525	394
434.463	362
432.4	375.5
430.337	371.5
428.274	376.5
426.21	383.5
424.145	384.5
422.079	386.5
420.014	384.5
417.948	402.5
415.882	394.5
413.814	390
411.746	390
409.679	391
407.609	395
405.54	386
403.47	407
401.401	386.5
399.329	402.5
397.258	398.5
395.187	401
393.114	413
391.041	410
388.968	411.5
386.895	409
384.82	422.5
382.745	409.5
380.67	411
378.594	414
376.517	417
374.44	441.5
372.363	409
370.286	405
368.207	425.5
366.128	436
364.049	429
361.969	453
359.888	434
357.807	437.5
355.725	442
353.643	436
351.561	458
349.477	464
347.394	464
345.31	471.5
343.226	482
341.141	460
339.055	455
336.968	469
334.882	485.5
332.795	486
330.707	501
328.618	507.5
326.53	508
324.44	520
322.351	526.5
320.26	535
318.17	571.5
316.078	574
313.987	616.5
311.895	627.5
309.802	644.5
307.708	676.5
305.614	694.5
303.52	702
301.425	682.5
299.329	664
297.233	662.5
295.137	641.5
293.039	617.5
290.942	613
288.844	604.5
286.745	593
284.647	589
282.546	582
280.446	584
278.346	579
276.245	600
274.143	594.5
272.041	559
269.939	561.5
267.835	600
265.731	601
263.627	580
261.522	593.5
259.417	592
257.311	613
255.204	605
253.098	616.5
250.99	597
248.882	618.5
246.774	609.5
244.664	639
242.555	647.5
240.445	653
238.334	642
236.223	665
234.112	651
232	678
229.888	652.5
227.775	655.5
225.661	682.5
223.546	693.5
221.431	679.5
219.316	687.5
217.201	685
215.084	711
212.967	701.5
210.85	688.5
208.732	714
206.614	707
204.495	732
202.375	715
200.256	729.5
198.135	723.5
196.014	721.5
193.893	711
191.771	733.5
189.648	730
187.525	739.5
185.401	748
183.277	765
181.152	774.5
179.027	762.5
176.901	782
174.775	787
172.648	786.5
170.521	779
168.393	805
166.265	811.5
164.136	860
162.007	862.5
159.876	876
157.746	854
155.615	901.5
153.483	914.5
151.351	933
149.219	958.5
147.086	949
144.952	1002.5
142.818	1016.5
140.684	1064.5
138.548	1072
136.413	1089.5
134.276	1143
132.139	1162.5
130.002	1184
127.864	1234.5
125.725	1269.5
123.587	1306
121.447	1333.5
119.307	1386
117.166	1412.5
115.026	1461.5
112.885	1503
110.743	1522
108.6	1536
106.456	1571
104.313	1549
102.169	1536
100.023	1454.5
97.8789	1352
95.7328	1242
93.5869	1079
91.4392	922.5
89.2919	753
87.1447	597
84.9959	478
