3528.51	92
3527.23	83.5
3525.95	68
3524.67	79.5
3523.39	106
3522.1	87
3520.82	80.5
3519.54	85.5
3518.26	99.5
3516.97	93
3515.69	104.5
3514.4	102.5
3513.12	62
3511.84	108
3510.55	90.5
3509.26	91.5
3507.98	79
3506.69	103
3505.41	79.5
3504.12	90
3502.83	101
3501.54	104
3500.26	102
3498.97	63
3497.68	99
3496.39	111
3495.1	112.5
3493.81	114
3492.52	114
3491.23	100.5
3489.94	75.5
3488.65	113
3487.36	89
3486.07	100
3484.78	112
3483.49	102
3482.19	111
3480.9	112
3479.61	110
3478.31	109
3477.02	130.5
3475.73	114
3474.43	120.5
3473.14	126
3471.84	134
3470.54	132.5
3469.25	132.5
3467.95	112.5
3466.66	118.5
3465.36	108
3464.06	134.5
3462.76	124
3461.46	155.5
3460.17	127
3458.87	135
3457.57	151
3456.27	154.5
3454.97	119
3453.67	140
3452.37	139
3451.07	124.5
3449.77	139
3448.47	126.5
3447.16	147.5
3445.86	147
3444.56	134
3443.26	165
3441.95	150
3440.65	148.5
3439.35	165
3438.04	135
3436.74	192.5
3435.43	162
3434.13	166.5
3432.82	178
3431.52	186
3430.21	191
3428.9	190
3427.6	193.5
3426.29	183
3424.98	185
3423.67	183.5
3422.36	167
3421.06	188.5
3419.75	181.5
3418.44	217.5
3417.13	201.5
3415.82	177
3414.51	202
3413.2	176
3411.88	217
3410.57	210.5
3409.26	197
3407.95	190.5
3406.64	221.5
3405.32	207.5
3404.01	185
3402.7	232
3401.38	221.5
3400.07	222.5
3398.75	242
3397.44	222
3396.12	233.5
3394.81	226
3393.49	218.5
3392.18	214
3390.86	228.5
3389.54	243.5
3388.23	234
3386.91	215
3385.59	255
3384.27	239.5
3382.95	239.5
3381.63	232
3380.31	249
3378.99	268.5
3377.67	247
3376.35	273
3375.03	263.5
3373.71	265
3372.39	251
3371.07	269.5
3369.75	265.5
3368.42	285.5
3367.1	292
3365.78	263.5
3364.45	273.5
3363.13	278.5
3361.81	273
3360.48	315
3359.16	292
3357.83	274
3356.51	323
3355.18	284.5
3353.85	285.5
3352.53	292
3351.2	261.5
3349.87	290
3348.54	311.5
3347.22	317.5
3345.89	283.5
3344.56	293
3343.23	345.5
3341.9	304
3340.57	302
3339.24	330.5
3337.91	299
3336.58	313.5
3335.25	312
3333.92	295
3332.58	299
3331.25	326.5
3329.92	291.5
3328.59	322
3327.25	316
3325.92	331
3324.58	327
3323.25	311.5
3321.92	305.5
3320.58	305.5
3319.25	329
3317.91	322
3316.57	326
3315.24	341
3313.9	347.5
3312.56	326
3311.23	335
3309.89	343
3308.55	316
3307.21	347
3305.87	359.5
3304.53	336.5
3303.19	344
3301.85	370
3300.51	331
3299.17	378.5
3297.83	317
3296.49	344
3295.15	357
3293.81	390.5
3292.46	390
3291.12	327.5
3289.78	349.5
3288.43	384
3287.09	370.5
3285.75	338
3284.4	382
3283.06	392
3281.71	365
3280.37	361
3279.02	375.5
3277.67	373
3276.33	369
3274.98	379
3273.63	384
3272.28	364
3270.94	358
3269.59	411
3268.24	360
3266.89	385
3265.54	373
3264.19	398.5
3262.84	417
3261.49	385
3260.14	398.5
3258.79	429
3257.44	415
3256.08	407
3254.73	426
3253.38	430.5
3252.03	471
3250.67	447
3249.32	457.5
3247.96	471.5
3246.61	467
3245.26	511
3243.9	487
3242.54	511
3241.19	519
3239.83	548.5
3238.48	545.5
3237.12	592
3235.76	560
3234.41	604.5
3233.05	637
3231.69	606.5
3230.33	638
3228.97	637
3227.61	680.5
3226.25	666
3224.89	698
3223.53	665.5
3222.17	717
3220.81	731
3219.45	737.5
3218.09	758.5
3216.72	741
3215.36	790.5
3214	779.5
3212.63	775
3211.27	800.5
3209.91	800.5
3208.54	826
3207.18	832.5
3205.81	874
3204.45	865
3203.08	853
3201.71	878.5
3200.35	845
3198.98	882
3197.61	855
3196.25	881
3194.88	886.5
3193.51	878
3192.14	876
3190.77	868.5
3189.4	910
3188.03	894.5
3186.66	915.5
3185.29	945.5
3183.92	887.5
3182.55	931
3181.18	905
3179.81	958
3178.44	939
3177.06	942.5
3175.69	935.5
3174.32	965
3172.94	974.5
3171.57	992
3170.2	978
3168.82	996.5
3167.45	981
3166.07	972.5
3164.69	1000
3163.32	1005
3161.94	1003
3160.56	1024
3159.19	1019.5
3157.81	1037.5
3156.43	1046
3155.05	1073
3153.67	1078.5
3152.3	1050
3150.92	1090.5
3149.54	1123
3148.16	1083
3146.78	1107.5
3145.4	1090.5
3144.01	1106.5
3142.63	1111.5
3141.25	1122
3139.87	1129
3138.49	1150.5
3137.1	1165
3135.72	1138.5
3134.34	1148
3132.95	1208.5
3131.57	1205.5
3130.18	1185
3128.8	1191.5
3127.41	1168.5
3126.03	1228
3124.64	1240.5
3123.25	1251.5
3121.87	1208
3120.48	1228.5
3119.09	1239.5
3117.7	1264
3116.32	1291.5
3114.93	1281
3113.54	1273
3112.15	1283.5
3110.76	1276
3109.37	1243
3107.98	1289
3106.59	1309.5
3105.2	1326.5
3103.8	1315.5
3102.41	1345
3101.02	1336
3099.63	1316.5
3098.23	1344.5
3096.84	1332
3095.45	1357
3094.05	1324
3092.66	1355.5
3091.26	1362
3089.87	1358
3088.47	1371
3087.08	1374
3085.68	1377
3084.28	1368
3082.89	1396
3081.49	1396
3080.09	1393
3078.69	1397
3077.3	1426.5
3075.9	1386
3074.5	1450.5
3073.1	1421
3071.7	1419.5
3070.3	1417.5
3068.9	1452.5
3067.5	1423.5
3066.09	1401.5
3064.69	1438
3063.29	1416
3061.89	1457.5
3060.48	1431
3059.08	1490
3057.68	1479.5
3056.27	1492
3054.87	1453
3053.46	1451
3052.06	1461
3050.65	1473.5
3049.25	1467
3047.84	1451
3046.44	1486.5
3045.03	1533.5
3043.62	1495.5
3042.21	1534
3040.81	1505
3039.4	1545
3037.99	1500.5
3036.58	1533
3035.17	1520
3033.76	1547.5
3032.35	1525
3030.94	1544.5
3029.53	1553
3028.12	1518
3026.71	1599
3025.29	1557
3023.88	1555
3022.47	1553.5
3021.06	1590
3019.64	1534
3018.23	1564
3016.82	1589
3015.4	1601.5
3013.99	1572.5
3012.57	1595
3011.15	1598.5
3009.74	1575.5
3008.32	1604.5
3006.91	1627
3005.49	1594
3004.07	1610.5
3002.65	1578
3001.24	1644
2999.82	1642.5
2998.4	1619.5
2996.98	1642.5
2995.56	1630.5
2994.14	1632
2992.72	1634.5
2991.3	1665.5
2989.88	1655
2988.46	1682.5
2987.03	1704
2985.61	1707
2984.19	1709.5
2982.77	1713.5
2981.34	1687.5
2979.92	1745.5
2978.49	1797
2977.07	1760
2975.65	1717.5
2974.22	1730.5
2972.79	1788.5
2971.37	1829.5
2969.94	1794
2968.52	1783
2967.09	1824
2965.66	1847
2964.23	1871.5
2962.81	1882.5
2961.38	1838
2959.95	1848
2958.52	1885
2957.09	1852.5
2955.66	1881
2954.23	1854
2952.8	1899
2951.37	1897
2949.94	1889.5
2948.5	1898.5
2947.07	1930.5
2945.64	1954.5
2944.21	1917.5
2942.77	1923.5
2941.34	1936
2939.91	1964
2938.47	2009.5
2937.04	1982.5
2935.6	2029.5
2934.17	2004.5
2932.73	1983
2931.29	2010.5
2929.86	2001
2928.42	2000.5
2926.98	2038.5
2925.55	2038.5
2924.11	2085
2922.67	2088.5
2921.23	2081
2919.79	2050
2918.35	2115.5
2916.91	2104
2915.47	2095.5
2914.03	2088.5
2912.59	2088
2911.15	2123.5
2909.71	2098.5
2908.26	2168.5
2906.82	2132
2905.38	2094.5
2903.94	2102
2902.49	2141.5
2901.05	2129.5
2899.6	2117
2898.16	2184
2896.71	2166.5
2895.27	2187
2893.82	2138
2892.38	2177
2890.93	2137.5
2889.48	2171
2888.03	2179
2886.59	2161.5
2885.14	2123
2883.69	2119.5
2882.24	2181.5
2880.79	2181
2879.34	2172.5
2877.89	2168.5
2876.44	2165.5
2874.99	2160
2873.54	2178
2872.09	2151
2870.64	2150
2869.18	2165
2867.73	2097
2866.28	2172
2864.83	2213
2863.37	2196
2861.92	2185
2860.46	2184
2859.01	2205.5
2857.55	2197
2856.1	2226.5
2854.64	2250
2853.19	2177.5
2851.73	2218
2850.27	2172
2848.81	2193
2847.36	2244
2845.9	2191
2844.44	2175.5
2842.98	2242.5
2841.52	2148.5
2840.06	2141
2838.6	2166
2837.14	2141
2835.68	2125.5
2834.22	2144.5
2832.76	2094
2831.3	2096.5
2829.83	2066
2828.37	2081
2826.91	2060.5
2825.44	2048.5
2823.98	2054
2822.52	2059.5
2821.05	2054
2819.59	1993
2818.12	2024
2816.66	2011.5
2815.19	2012.5
2813.72	2001
2812.26	1951
2810.79	1947
2809.32	1965.5
2807.85	1971
2806.38	1936.5
2804.92	1957
2803.45	1990
2801.98	2000.5
2800.51	2011
2799.04	1933
2797.57	1967
2796.1	1955
2794.62	1944.5
2793.15	1954.5
2791.68	1927.5
2790.21	1914
2788.73	1916.5
2787.26	1913.5
2785.79	1917.5
2784.31	1928
2782.84	1942
2781.36	1949.5
2779.89	1905
2778.41	1911
2776.94	1922.5
2775.46	1945.5
2773.99	1912
2772.51	1884
2771.03	1967
2769.55	1936.5
2768.07	1932.5
2766.6	1914
2765.12	1926.5
2763.64	1945
2762.16	1924
2760.68	1921.5
2759.2	1920.5
2757.72	1931
2756.24	1913
2754.75	1944
2753.27	1918.5
2751.79	1964
2750.31	1949
2748.82	1895
2747.34	1935.5
2745.86	1957.5
2744.37	1908.5
2742.89	1891
2741.4	1915.5
2739.92	1860.5
2738.43	1907.5
2736.94	1924.5
2735.46	1888.5
2733.97	1932
2732.48	1907.5
2731	1910.5
2729.51	1915
2728.02	1930.5
2726.53	1943.5
2725.04	1885
2723.55	1915.5
2722.06	1964.5
2720.57	1905.5
2719.08	1911
2717.59	1901
2716.1	1915
2714.61	1918.5
2713.11	1927.5
2711.62	1882
2710.13	1866
2708.64	1901.5
2707.14	1913
2705.65	1878
2704.15	1884.5
2702.66	1880
2701.16	1844.5
2699.67	1861
2698.17	1886
2696.67	1913.5
2695.18	1882
2693.68	1872
2692.18	1890
2690.69	1845
2689.19	1852
2687.69	1885.5
2686.19	1824.5
2684.69	1884.5
2683.19	1846
2681.69	1861.5
2680.19	1853.5
2678.69	1801
2677.19	1838.5
2675.68	1850
2674.18	1813
2672.68	1858
2671.18	1819
2669.67	1837
2668.17	1820.5
2666.66	1819.5
2665.16	1818
2663.66	1817.5
2662.15	1818
2660.64	1834
2659.14	1826.5
2657.63	1817
2656.13	1792
2654.62	1827.5
2653.11	1803.5
2651.6	1739.5
2650.09	1770
2648.58	1788
2647.08	1790
2645.57	1828
2644.06	1801
2642.55	1771.5
2641.04	1768
2639.52	1788.5
2638.01	1791
2636.5	1780
2634.99	1778
2633.48	1789.5
2631.96	1775.5
2630.45	1770.5
2628.94	1780
2627.42	1740.5
2625.91	1749
2624.39	1753
2622.88	1748
2621.36	1752
2619.85	1747.5
2618.33	1755.5
2616.81	1737
2615.3	1751.5
2613.78	1718.5
2612.26	1745.5
2610.74	1727
2609.22	1680.5
2607.7	1724
2606.18	1680.5
2604.66	1703
2603.14	1680
2601.62	1714
2600.1	1699.5
2598.58	1688.5
2597.06	1682.5
2595.54	1659
2594.01	1646
2592.49	1689.5
2590.97	1643.5
2589.44	1682
2587.92	1643
2586.39	1700.5
2584.87	1684.5
2583.34	1706
2581.82	1673
2580.29	1660
2578.76	1649
2577.24	1644.5
2575.71	1676.5
2574.18	1656.5
2572.65	1625.5
2571.13	1597
2569.6	1687.5
2568.07	1605.5
2566.54	1616
2565.01	1635
2563.48	1625.5
2561.95	1608.5
2560.42	1604
2558.88	1596
2557.35	1614.5
2555.82	1605
2554.29	1563.5
2552.75	1570.5
2551.22	1612.5
2549.69	1576
2548.15	1516.5
2546.62	1563.5
2545.08	1596
2543.55	1577.5
2542.01	1530
2540.47	1567
2538.94	1578
2537.4	1527
2535.86	1549.5
2534.33	1525
2532.79	1519
2531.25	1531.5
2529.71	1532
2528.17	1537.5
2526.63	1517
2525.09	1481.5
2523.55	1478
2522.01	1531
2520.47	1481.5
2518.92	1458.5
2517.38	1475.5
2515.84	1508.5
2514.3	1492
2512.75	1476
2511.21	1487.5
2509.67	1439
2508.12	1440.5
2506.58	1467
2505.03	1468.5
2503.49	1435
2501.94	1465.5
2500.39	1431
2498.85	1415
2497.3	1415
2495.75	1441
2494.2	1396.5
2492.65	1400
2491.11	1421.5
2489.56	1399.5
2488.01	1388
2486.46	1427
2484.91	1396.5
2483.36	1373.5
2481.8	1421
2480.25	1408
2478.7	1382.5
2477.15	1400.5
2475.6	1393.5
2474.04	1325.5
2472.49	1317
2470.93	1335.5
2469.38	1355
2467.83	1336.5
2466.27	1305.5
2464.71	1321
2463.16	1323.5
2461.6	1332
2460.05	1281.5
2458.49	1328.5
2456.93	1285.5
2455.37	1292
2453.81	1327.5
2452.26	1323.5
2450.7	1325.5
2449.14	1260.5
2447.58	1293
2446.02	1262.5
2444.46	1283
2442.9	1293.5
2441.33	1277.5
2439.77	1297
2438.21	1233.5
2436.65	1257
2435.08	1266
2433.52	1263
2431.96	1236
2430.39	1247.5
2428.83	1216
2427.26	1196
2425.7	1263.5
2424.13	1231
2422.56	1268.5
2421	1254.5
2419.43	1215
2417.86	1220
2416.3	1177
2414.73	1182
2413.16	1184.5
2411.59	1231
2410.02	1219.5
2408.45	1180.5
2406.88	1206
2405.31	1222
2403.74	1191
2402.17	1211.5
2400.6	1174.5
2399.02	1174
2397.45	1155
2395.88	1192
2394.3	1158.5
2392.73	1172.5
2391.16	1182
2389.58	1150.5
2388.01	1184
2386.43	1199
2384.86	1198
2383.28	1186.5
2381.7	1155
2380.13	1127
2378.55	1152.5
2376.97	1141.5
2375.39	1122.5
2373.81	1116
2372.23	1136.5
2370.65	1157
2369.07	1116.5
2367.49	1088.5
2365.91	1148
2364.33	1136
2362.75	1098.5
2361.17	1094.5
2359.59	1132.5
2358.01	1134.5
2356.42	1100.5
2354.84	1090
2353.25	1088.5
2351.67	1111
2350.09	1083
2348.5	1095
2346.92	1095.5
2345.33	1103
2343.74	1078.5
2342.16	1092
2340.57	1048.5
2338.98	1072.5
2337.39	1117
2335.81	1100
2334.22	1088.5
2332.63	1100
2331.04	1070
2329.45	1082.5
2327.86	1115
2326.27	1108.5
2324.68	1064
2323.09	1084
2321.49	1058
2319.9	1032
2318.31	1036.5
2316.72	1032.5
2315.12	1026.5
2313.53	1053
2311.93	1040.5
2310.34	1030
2308.74	1036.5
2307.15	1014.5
2305.55	1002
2303.96	1023
2302.36	1023
2300.76	1004
2299.17	1029
2297.57	979
2295.97	1017.5
2294.37	994
2292.77	1009
2291.17	1038
2289.57	985
2287.97	967
2286.37	1016.5
2284.77	988
2283.17	947.5
2281.57	999.5
2279.96	970.5
2278.36	947
2276.76	958
2275.15	968.5
2273.55	954.5
2271.95	967
2270.34	916
2268.74	954.5
2267.13	926
2265.52	937
2263.92	932.5
2262.31	913.5
2260.7	911
2259.1	941
2257.49	930
2255.88	888.5
2254.27	903
2252.66	882
2251.05	903.5
2249.44	910.5
2247.83	894
2246.22	921
2244.61	875
2243	908
2241.39	900.5
2239.77	890
2238.16	901
2236.55	868
2234.93	932
2233.32	893
2231.7	876.5
2230.09	892.5
2228.47	883
2226.86	875.5
2225.24	853
2223.63	822.5
2222.01	856
2220.39	864.5
2218.77	878
2217.16	850
2215.54	884
2213.92	792
2212.3	840
2210.68	826.5
2209.06	836
2207.44	832
2205.82	850.5
2204.19	810
2202.57	823.5
2200.95	819.5
2199.33	838
2197.7	834
2196.08	821
2194.46	808
2192.83	808
2191.21	797.5
2189.58	788.5
2187.96	808
2186.33	799
2184.7	797
2183.08	771
2181.45	810
2179.82	753.5
2178.19	801
2176.57	798
2174.94	769.5
2173.31	770
2171.68	807.5
2170.05	777
2168.42	772.5
2166.79	755.5
2165.16	794
2163.52	775
2161.89	787.5
2160.26	783
2158.63	743.5
2156.99	802
2155.36	735.5
2153.73	765
2152.09	756
2150.46	729.5
2148.82	782
2147.18	742.5
2145.55	734
2143.91	714
2142.27	717
2140.64	694
2139	714
2137.36	752.5
2135.72	703
2134.08	709.5
2132.44	696.5
2130.8	707.5
2129.16	711
2127.52	696
2125.88	666
2124.24	715
2122.6	699.5
2120.95	667
2119.31	667
2117.67	679.5
2116.02	632
2114.38	698
2112.74	660
2111.09	680
2109.45	677
2107.8	679
2106.15	652.5
2104.51	666
2102.86	661
2101.21	627.5
2099.56	636.5
2097.92	651
2096.27	655
2094.62	644.5
2092.97	646.5
2091.32	669.5
2089.67	621.5
2088.02	626
2086.37	665
2084.72	637.5
2083.06	632.5
2081.41	654
2079.76	643.5
2078.1	605
2076.45	658.5
2074.8	595.5
2073.14	612.5
2071.49	648
2069.83	629
2068.18	626.5
2066.52	603
2064.86	631
2063.21	593
2061.55	658.5
2059.89	600.5
2058.23	606.5
2056.57	656
2054.92	584
2053.26	613.5
2051.6	613
2049.94	601
2048.27	583.5
2046.61	569.5
2044.95	601.5
2043.29	581.5
2041.63	598.5
2039.97	600.5
2038.3	580
2036.64	586.5
2034.97	577.5
2033.31	559
2031.64	574
2029.98	544
2028.31	559.5
2026.65	563
2024.98	558.5
2023.31	559
2021.65	540
2019.98	604.5
2018.31	575
2016.64	546
2014.97	530.5
2013.3	526
2011.63	540
2009.96	521
2008.29	544
2006.62	512
2004.95	543
2003.28	538
2001.6	508
1999.93	533.5
1998.26	528
1996.58	530
1994.91	541
1993.24	521.5
1991.56	519.5
1989.89	522.5
1988.21	519.5
1986.53	536
1984.86	506
1983.18	498
1981.5	521.5
1979.82	508.5
1978.15	541.5
1976.47	521.5
1974.79	515
1973.11	500.5
1971.43	534
1969.75	474
1968.07	507
1966.38	492.5
1964.7	509.5
1963.02	474
1961.34	484.5
1959.66	484.5
1957.97	494.5
1956.29	493.5
1954.6	474
1952.92	482.5
1951.23	495
1949.55	473.5
1947.86	463
1946.18	490.5
1944.49	472
1942.8	486.5
1941.11	477
1939.43	471.5
1937.74	447
1936.05	464
1934.36	421.5
1932.67	447.5
1930.98	484
1929.29	451
1927.6	431.5
1925.91	452.5
1924.21	438.5
1922.52	450
1920.83	445.5
1919.14	445
1917.44	449.5
1915.75	459
1914.05	446.5
1912.36	442
1910.66	437
1908.97	422
1907.27	414.5
1905.58	414
1903.88	416.5
1902.18	426.5
1900.48	409
1898.79	430.5
1897.09	422
1895.39	417
1893.69	432
1891.99	419
1890.29	404.5
1888.59	388.5
1886.89	406
1885.18	401.5
1883.48	393
1881.78	406
1880.08	404
1878.37	391.5
1876.67	400
1874.96	398.5
1873.26	412.5
1871.55	398
1869.85	408
1868.14	377.5
1866.44	373
1864.73	391.5
1863.02	384.5
1861.32	401
1859.61	398
1857.9	390
1856.19	377
1854.48	372
1852.77	377
1851.06	364
1849.35	356.5
1847.64	400
1845.93	367.5
1844.21	354.5
1842.5	339.5
1840.79	378.5
1839.08	393.5
1837.36	350
1835.65	391.5
1833.93	378
1832.22	359
1830.5	329
1828.79	352.5
1827.07	371.5
1825.36	361.5
1823.64	361.5
1821.92	353.5
1820.2	333.5
1818.48	369
1816.77	359
1815.05	342
1813.33	345.5
1811.61	338
1809.89	340
1808.16	357.5
1806.44	341
1804.72	326.5
1803	329
1801.28	327
1799.55	341
1797.83	328
1796.11	325
1794.38	308
1792.66	328.5
1790.93	337.5
1789.21	331
1787.48	304
1785.75	344
1784.03	329
1782.3	335
1780.57	309.5
1778.84	302.5
1777.11	347.5
1775.38	305.5
1773.66	312
1771.93	318
1770.19	322.5
1768.46	317
1766.73	313.5
1765	339.5
1763.27	370
1761.54	322
1759.8	328.5
1758.07	334
1756.34	377.5
1754.6	360
1752.87	357.5
1751.13	369.5
1749.4	386.5
1747.66	378.5
1745.92	365.5
1744.19	362
1742.45	366.5
1740.71	379
1738.97	342
1737.23	357
1735.49	352
1733.75	346.5
1732.01	350.5
1730.27	325
1728.53	290
1726.79	335
1725.05	295
1723.31	309
1721.57	291
1719.82	296
1718.08	289
1716.34	277
1714.59	314.5
1712.85	287
1711.1	269.5
1709.36	303
1707.61	275
1705.86	312
1704.12	318.5
1702.37	327
1700.62	279
1698.87	304.5
1697.12	293
1695.37	296
1693.62	269
1691.87	268
1690.12	289
1688.37	311.5
1686.62	256
1684.87	299.5
1683.12	274
1681.36	296.5
1679.61	291
1677.86	307.5
1676.1	285.5
1674.35	327
1672.59	309
1670.84	321.5
1669.08	322
1667.33	342.5
1665.57	350
1663.81	343
1662.06	403
1660.3	417
1658.54	421.5
1656.78	455.5
1655.02	434
1653.26	423
1651.5	411
1649.74	386
1647.98	337
1646.22	319
1644.46	330
1642.7	298
1640.93	324.5
1639.17	273.5
1637.41	273
1635.64	285
1633.88	251.5
1632.11	275
1630.35	276.5
1628.58	265
1626.81	263
1625.05	279.5
1623.28	269.5
1621.51	240
1619.75	240
1617.98	264
1616.21	249.5
1614.44	254
1612.67	252
1610.9	236
1609.13	289
1607.36	259.5
1605.58	230
1603.81	251.5
1602.04	266
1600.27	240.5
1598.49	255.5
1596.72	208
1594.95	240.5
1593.17	272
1591.4	233.5
1589.62	236
1587.84	258
1586.07	232.5
1584.29	244.5
1582.51	241
1580.74	257.5
1578.96	236
1577.18	232
1575.4	229.5
1573.62	224
1571.84	238.5
1570.06	243
1568.28	245.5
1566.5	264
1564.72	236
1562.93	239.5
1561.15	225
1559.37	280.5
1557.58	262
1555.8	251
1554.02	254.5
1552.23	243.5
1550.45	269
1548.66	251.5
1546.87	220.5
1545.09	213.5
1543.3	213
1541.51	244
1539.72	246.5
1537.94	211.5
1536.15	246
1534.36	245.5
1532.57	233
1530.78	235.5
1528.99	207.5
1527.2	242.5
1525.4	216
1523.61	238
1521.82	219
1520.03	235.5
1518.23	230
1516.44	228.5
1514.65	259
1512.85	260
1511.06	225.5
1509.26	244
1507.46	256.5
1505.67	254.5
1503.87	227
1502.07	246
1500.28	249
1498.48	234
1496.68	269
1494.88	240
1493.08	237
1491.28	256
1489.48	268
1487.68	276
1485.88	275
1484.08	305
1482.27	304
1480.47	292
1478.67	327
1476.86	342
1475.06	381
1473.25	419.5
1471.45	438
1469.64	493
1467.84	485
1466.03	517
1464.23	563
1462.42	565
1460.61	617
1458.8	667
1456.99	667.5
1455.18	664
1453.37	695
1451.56	740
1449.75	765
1447.94	758
1446.13	798
1444.32	849
1442.51	861.5
1440.7	866
1438.88	848
1437.07	803.5
1435.26	713.5
1433.44	600
1431.63	615.5
1429.81	498
1427.99	500.5
1426.18	449
1424.36	426
1422.54	408
1420.73	389
1418.91	332
1417.09	339
1415.27	325
1413.45	303.5
1411.63	302
1409.81	305
1407.99	310
1406.17	261
1404.35	244
1402.53	279
1400.7	244
1398.88	281
1397.06	257.5
1395.23	258.5
1393.41	274.5
1391.58	243.5
1389.76	249
1387.93	255
1386.11	257
1384.28	283.5
1382.45	257
1380.62	248
1378.8	244
1376.97	280
1375.14	288.5
1373.31	268
1371.48	275
1369.65	265.5
1367.82	282
1365.99	283
1364.16	279.5
1362.32	258.5
1360.49	259
1358.66	271
1356.82	290.5
1354.99	265.5
1353.16	243.5
1351.32	257
1349.48	257
1347.65	283
1345.81	290
1343.98	306.5
1342.14	285
1340.3	256
1338.46	272.5
1336.62	267.5
1334.79	296.5
1332.95	296.5
1331.11	303
1329.27	339
1327.42	353
1325.58	336
1323.74	379.5
1321.9	390.5
1320.06	396
1318.21	421
1316.37	454.5
1314.53	466
1312.68	502
1310.84	538.5
1308.99	551
1307.15	585
1305.3	636
1303.45	673
1301.61	657.5
1299.76	661
1297.91	660.5
1296.06	651.5
1294.21	524.5
1292.36	492
1290.51	474
1288.66	462.5
1286.81	428
1284.96	399
1283.11	388
1281.26	404.5
1279.4	390.5
1277.55	370
1275.7	386.5
1273.84	401
1271.99	378
1270.13	386
1268.28	375
1266.42	384
1264.56	368.5
1262.71	366.5
1260.85	355.5
1258.99	365
1257.13	342.5
1255.27	324
1253.41	350.5
1251.56	331
1249.7	298
1247.83	307
1245.97	264
1244.11	271.5
1242.25	278.5
1240.39	273
1238.52	275.5
1236.66	258
1234.8	255.5
1232.93	247
1231.07	247
1229.2	235
1227.34	229
1225.47	229
1223.6	251.5
1221.74	213
1219.87	217
1218	257.5
1216.13	220.5
1214.26	209
1212.39	237
1210.53	227.5
1208.65	226
1206.78	224
1204.91	231
1203.04	229
1201.17	237
1199.3	252
1197.42	237
1195.55	225.5
1193.68	250.5
1191.8	232.5
1189.93	213.5
1188.05	217
1186.17	218
1184.3	235.5
1182.42	231
1180.54	230.5
1178.67	228.5
1176.79	225.5
1174.91	245.5
1173.03	227.5
1171.15	244.5
1169.27	217
1167.39	246.5
1165.51	235
1163.63	236
1161.75	262
1159.86	273
1157.98	228
1156.1	243.5
1154.21	250
1152.33	223
1150.44	232.5
1148.56	237
1146.67	246.5
1144.79	248
1142.9	253
1141.01	209
1139.12	251.5
1137.24	254.5
1135.35	297.5
1133.46	321.5
1131.57	338
1129.68	339
1127.79	368
1125.9	367
1124.01	372.5
1122.12	333
1120.22	328
1118.33	329.5
1116.44	339.5
1114.54	280
1112.65	344
1110.75	301
1108.86	340.5
1106.96	334
1105.07	328.5
1103.17	359.5
1101.27	364.5
1099.38	375.5
1097.48	413
1095.58	427
1093.68	429.5
1091.78	442
1089.88	465.5
1087.98	462.5
1086.08	489
1084.18	528
1082.28	509
1080.38	491
1078.47	490
1076.57	503
1074.67	459
1072.76	479.5
1070.86	477
1068.95	502
1067.05	481
1065.14	554
1063.24	529
1061.33	492
1059.42	483.5
1057.51	410
1055.6	391
1053.7	380.5
1051.79	372.5
1049.88	356.5
1047.97	369
1046.06	360
1044.14	347.5
1042.23	324
1040.32	343
1038.41	332
1036.5	334
1034.58	368
1032.67	348
1030.75	331.5
1028.84	332
1026.92	310.5
1025.01	306
1023.09	316
1021.17	317.5
1019.26	327
1017.34	299
1015.42	329
1013.5	324
1011.58	296
1009.66	300.5
1007.74	295.5
1005.82	297
1003.9	281
1001.98	275.5
1000.06	282
998.134	276
996.212	280
994.288	269.5
992.364	283
990.44	294.5
988.515	326
986.589	276
984.663	308
982.737	311.5
980.81	308
978.883	342
976.955	318
975.027	350.5
973.098	348
971.169	335
969.239	363
967.308	339.5
965.378	322.5
963.447	337
961.516	357.5
959.583	333.5
957.65	333
955.718	355
953.784	384
951.85	351.5
949.916	354
947.981	352
946.045	360
944.109	383.5
942.173	356
940.236	373.5
938.298	372
936.36	349.5
934.422	391.5
932.484	378
930.544	366.5
928.604	364.5
926.664	356
924.724	341.5
922.782	358
920.84	374
918.898	351
916.955	360.5
915.012	356.5
913.068	361
911.124	367
909.18	328.5
907.235	319
905.289	334
903.343	355
901.397	373.5
899.45	369.5
897.502	395.5
895.554	401
893.605	358
891.657	428
889.707	419
887.758	406.5
885.807	424
883.856	421.5
881.905	401
879.953	438.5
878.001	420
876.048	427
874.094	406
872.14	444
870.186	412
868.232	417
866.276	453
864.321	403.5
862.365	395
860.408	413
858.451	423.5
856.493	400
854.535	395
852.576	386
850.617	392
848.658	400.5
846.698	406.5
844.737	382
842.776	405
840.814	383.5
838.852	378
836.89	369
834.927	375
832.963	330
830.999	317.5
829.035	328
827.07	326.5
825.105	303
823.139	340
821.172	312.5
819.206	308
817.238	317
815.27	288.5
813.301	278.5
811.333	278
809.363	295
807.394	255
805.424	278.5
803.453	261
801.482	254.5
799.509	244
797.538	239
795.565	223
793.592	244.5
791.618	241
789.643	209.5
787.669	238
785.693	242.5
783.718	225
781.742	241.5
779.765	228
777.788	201
775.811	224
773.832	208
771.853	229
769.875	229
767.895	210
765.915	213.5
763.934	244.5
761.953	172
759.972	226.5
757.99	221
756.007	210
754.024	206
752.041	220
750.056	200.5
748.072	213
746.087	224
744.102	207
742.116	204
740.13	240.5
738.143	218
736.155	216.5
734.167	216
732.179	221
730.19	238
728.2	248
726.21	232.5
724.22	213
722.229	220
720.237	206
718.246	204
716.253	233
714.26	202
712.267	221.5
710.273	238
708.279	217.5
706.284	206.5
704.289	193
702.293	169
700.296	203.5
698.3	193
696.303	188
694.305	167
692.307	194.5
690.307	192.5
688.308	210
686.309	171.5
684.308	191.5
682.308	199.5
680.306	189
678.304	227
676.302	183
674.3	175
672.296	222
670.293	197
668.289	215
666.284	188
664.278	218.5
662.273	175
660.266	219
658.26	203.5
656.252	218
654.244	226
652.237	222
650.227	222.5
648.218	218.5
646.209	226.5
644.198	225
642.188	208
640.177	212
638.165	217
636.153	233.5
634.14	222.5
632.128	242
630.113	217.5
628.099	229
626.085	253
624.07	222.5
622.054	258
620.038	227
618.021	247
616.004	254
613.986	241
611.968	255
609.949	260
607.93	264.5
605.911	265.5
603.891	269
601.87	250
599.848	248
597.827	225
595.805	261
593.782	242
591.759	249
589.735	261.5
587.711	239.5
585.687	213.5
583.661	235
581.636	275.5
579.609	236.5
577.583	233.5
575.555	216
573.527	236.5
571.5	231
569.471	220.5
567.441	251
565.412	232
563.382	226
561.351	250
559.32	245.5
557.289	252
555.257	258
553.223	264
551.19	247.5
549.157	278
547.122	248
545.088	283
543.053	294
541.017	302.5
538.981	341
536.943	340
534.907	429
532.869	462.5
530.831	590.5
528.792	803.5
526.752	1237.5
524.713	1784.5
522.673	2313.5
520.632	2331
518.591	2047
516.549	1520.5
514.507	1078
512.464	757.5
510.42	560
508.377	463.5
506.332	359
504.288	351
502.242	355.5
500.196	327.5
498.15	319.5
496.104	328.5
494.056	297.5
492.008	310
489.96	293.5
487.911	309.5
485.862	283
483.812	319
481.761	293.5
479.71	287
477.659	280.5
475.607	297
473.555	305.5
471.502	289.5
469.448	290
467.395	318.5
465.34	301
463.285	280
461.23	288
459.174	304
457.118	312.5
455.061	266
453.003	307.5
450.945	280
448.887	324
446.828	294
444.768	299
442.708	303
440.647	302
438.587	300
436.525	317
434.463	304.5
432.4	302.5
430.337	309.5
428.274	307.5
426.21	316
424.145	363
422.079	310
420.014	307
417.948	304.5
415.882	334
413.814	315
411.746	321.5
409.679	324.5
407.609	319.5
405.54	338.5
403.47	312
401.401	291
399.329	361.5
397.258	321.5
395.187	321.5
393.114	321
391.041	326
388.968	330
386.895	353.5
384.82	322
382.745	321
380.67	335.5
378.594	346
376.517	332.5
374.44	301
372.363	331
370.286	313
368.207	319.5
366.128	344
364.049	339.5
361.969	331
359.888	342.5
357.807	331
355.725	350
353.643	368
351.561	323
349.477	354.5
347.394	369.5
345.31	345
343.226	355.5
341.141	332
339.055	339
336.968	380.5
334.882	366
332.795	341
330.707	367
328.618	388.5
326.53	389
324.44	370
322.351	397
320.26	388
318.17	419.5
316.078	427
313.987	405
311.895	427.5
309.802	444.5
307.708	462
305.614	470
303.52	467
301.425	476
299.329	428
297.233	454
295.137	433
293.039	433
290.942	429
288.844	433
286.745	445
284.647	454.5
282.546	415
280.446	478
278.346	424
276.245	432
274.143	440
272.041	470
269.939	500
267.835	477
265.731	454
263.627	471
261.522	509.5
259.417	489.5
257.311	519
255.204	517.5
253.098	492
250.99	471
248.882	539
246.774	536.5
244.664	508
242.555	571.5
240.445	537
238.334	556
236.223	523
234.112	564
232	538
229.888	574.5
227.775	618
225.661	587
223.546	604
221.431	593
219.316	607
217.201	580
215.084	587
212.967	596
210.85	619.5
208.732	604.5
206.614	602
204.495	609
202.375	625
200.256	616.5
198.135	614
196.014	624.5
193.893	608
191.771	637.5
189.648	628.5
187.525	655.5
185.401	635
183.277	633
181.152	655.5
179.027	633.5
176.901	640.5
174.775	665
172.648	648
170.521	696
168.393	697.5
166.265	709.5
164.136	694
162.007	729.5
159.876	733
157.746	754
155.615	745
153.483	776
151.351	835
149.219	824.5
147.086	812
144.952	849
142.818	924
140.684	932
138.548	915.5
136.413	966
134.276	992
132.139	1035
130.002	1053
127.864	1101
125.725	1171
123.587	1183
121.447	1263
119.307	1319
117.166	1389.5
115.026	1425
112.885	1399
110.743	1526
108.6	1584
106.456	1616.5
104.313	1646
102.169	1625
100.023	1611
97.8789	1507
95.7328	1378.5
93.5869	1237.5
91.4392	1092
89.2919	882
87.1447	721.5
84.9959	584
