3528.51	164.5
3527.23	177
3525.95	177
3524.67	160.5
3523.39	193
3522.1	197
3520.82	195
3519.54	202
3518.26	188.5
3516.97	200
3515.69	230
3514.4	194
3513.12	194
3511.84	205
3510.55	204
3509.26	209
3507.98	191.5
3506.69	206
3505.41	230
3504.12	222.5
3502.83	191
3501.54	205
3500.26	229
3498.97	223
3497.68	173.5
3496.39	228
3495.1	218
3493.81	231.5
3492.52	206
3491.23	259
3489.94	244
3488.65	233
3487.36	236
3486.07	216.5
3484.78	236.5
3483.49	261.5
3482.19	241
3480.9	246
3479.61	257
3478.31	255
3477.02	276.5
3475.73	247
3474.43	253.5
3473.14	238
3471.84	253
3470.54	251
3469.25	287.5
3467.95	269
3466.66	293
3465.36	254
3464.06	278
3462.76	266
3461.46	277.5
3460.17	283.5
3458.87	293.5
3457.57	295
3456.27	301
3454.97	286
3453.67	302.5
3452.37	325.5
3451.07	297
3449.77	325
3448.47	319.5
3447.16	292
3445.86	309.5
3444.56	295
3443.26	324
3441.95	338
3440.65	320
3439.35	360.5
3438.04	333
3436.74	351
3435.43	386.5
3434.13	362
3432.82	367.5
3431.52	393
3430.21	376.5
3428.9	383
3427.6	397
3426.29	405.5
3424.98	437
3423.67	417
3422.36	396
3421.06	436
3419.75	433.5
3418.44	420
3417.13	455.5
3415.82	442
3414.51	462.5
3413.2	457.5
3411.88	472.5
3410.57	466.5
3409.26	489.5
3407.95	468
3406.64	455
3405.32	479
3404.01	466
3402.7	471.5
3401.38	475.5
3400.07	486.5
3398.75	496
3397.44	519
3396.12	499
3394.81	516
3393.49	532
3392.18	526
3390.86	527
3389.54	538
3388.23	504.5
3386.91	512
3385.59	559
3384.27	567.5
3382.95	533
3381.63	564
3380.31	550
3378.99	572
3377.67	557
3376.35	574.5
3375.03	560.5
3373.71	609.5
3372.39	595
3371.07	574.5
3369.75	600.5
3368.42	619
3367.1	585.5
3365.78	628
3364.45	585
3363.13	641.5
3361.81	632.5
3360.48	638.5
3359.16	594
3357.83	636.5
3356.51	645
3355.18	639
3353.85	625
3352.53	637
3351.2	635
3349.87	647
3348.54	682.5
3347.22	654
3345.89	656
3344.56	647.5
3343.23	672.5
3341.9	688.5
3340.57	635
3339.24	642
3337.91	689.5
3336.58	681.5
3335.25	690
3333.92	668.5
3332.58	710.5
3331.25	681.5
3329.92	669
3328.59	672
3327.25	689.5
3325.92	701.5
3324.58	670
3323.25	734.5
3321.92	714
3320.58	701
3319.25	700
3317.91	691.5
3316.57	723
3315.24	739
3313.9	745
3312.56	737.5
3311.23	703
3309.89	727.5
3308.55	702
3307.21	761.5
3305.87	752
3304.53	749.5
3303.19	769
3301.85	715
3300.51	739.5
3299.17	782
3297.83	761.5
3296.49	812.5
3295.15	751
3293.81	805
3292.46	772
3291.12	811
3289.78	770
3288.43	778
3287.09	816
3285.75	805
3284.4	800
3283.06	789
3281.71	780
3280.37	800
3279.02	798
3277.67	784.5
3276.33	813
3274.98	798
3273.63	796
3272.28	819
3270.94	819
3269.59	834
3268.24	843
3266.89	846
3265.54	845
3264.19	865
3262.84	825
3261.49	884
3260.14	862
3258.79	858
3257.44	870
3256.08	913
3254.73	894.5
3253.38	940.5
3252.03	969
3250.67	970.5
3249.32	990.5
3247.96	1026
3246.61	1043
3245.26	1048
3243.9	1038.5
3242.54	1095
3241.19	1064
3239.83	1126.5
3238.48	1128.5
3237.12	1162
3235.76	1183.5
3234.41	1256
3233.05	1259.5
3231.69	1346
3230.33	1307
3228.97	1375.5
3227.61	1415
3226.25	1360
3224.89	1447
3223.53	1429.5
3222.17	1506
3220.81	1511
3219.45	1609
3218.09	1608
3216.72	1670
3215.36	1664.5
3214	1655.5
3212.63	1670
3211.27	1673.5
3209.91	1757.5
3208.54	1744.5
3207.18	1765
3205.81	1803
3204.45	1816
3203.08	1817
3201.71	1827
3200.35	1836.5
3198.98	1812
3197.61	1832
3196.25	1851
3194.88	1899
3193.51	1886.5
3192.14	1826
3190.77	1913
3189.4	1936
3188.03	1922
3186.66	1960
3185.29	1963
3183.92	1940
3182.55	1936.5
3181.18	1938.5
3179.81	1970
3178.44	1929
3177.06	2007
3175.69	1984.5
3174.32	2004.5
3172.94	2030.5
3171.57	2008
3170.2	2072
3168.82	2037
3167.45	2090
3166.07	2097
3164.69	2112
3163.32	2145.5
3161.94	2122.5
3160.56	2183
3159.19	2150.5
3157.81	2195
3156.43	2219
3155.05	2264
3153.67	2255.5
3152.3	2251.5
3150.92	2281
3149.54	2277.5
3148.16	2311
3146.78	2339.5
3145.4	2337
3144.01	2385
3142.63	2371.5
3141.25	2415
3139.87	2414
3138.49	2458
3137.1	2455
3135.72	2468
3134.34	2465
3132.95	2496
3131.57	2454
3130.18	2474
3128.8	2551.5
3127.41	2549
3126.03	2578
3124.64	2597
3123.25	2581.5
3121.87	2638.5
3120.48	2622
3119.09	2617
3117.7	2631.5
3116.32	2668.5
3114.93	2650
3113.54	2704.5
3112.15	2696
3110.76	2725
3109.37	2697
3107.98	2756.5
3106.59	2769.5
3105.2	2797
3103.8	2768.5
3102.41	2777
3101.02	2842
3099.63	2713.5
3098.23	2764.5
3096.84	2858
3095.45	2830.5
3094.05	2862
3092.66	2863.5
3091.26	2857.5
3089.87	2893
3088.47	2899.5
3087.08	2922.5
3085.68	2965.5
3084.28	2913.5
3082.89	2935
3081.49	2974.5
3080.09	2970
3078.69	2935.5
3077.3	2940
3075.9	3020.5
3074.5	2985
3073.1	3033
3071.7	3031
3070.3	3058.5
3068.9	3063
3067.5	3016.5
3066.09	3088.5
3064.69	3083.5
3063.29	3007
3061.89	3038.5
3060.48	3082
3059.08	3074.5
3057.68	3068
3056.27	3093
3054.87	3097.5
3053.46	3067
3052.06	3147.5
3050.65	3169
3049.25	3099
3047.84	3130.5
3046.44	3162
3045.03	3164.5
3043.62	3150.5
3042.21	3169
3040.81	3106
3039.4	3172.5
3037.99	3216
3036.58	3131
3035.17	3153
3033.76	3204
3032.35	3241.5
3030.94	3282
3029.53	3251
3028.12	3230
3026.71	3277
3025.29	3231
3023.88	3283
3022.47	3295.5
3021.06	3258.5
3019.64	3279.5
3018.23	3282
3016.82	3268
3015.4	3281
3013.99	3289
3012.57	3310
3011.15	3331.5
3009.74	3377.5
3008.32	3346.5
3006.91	3350.5
3005.49	3327
3004.07	3372
3002.65	3327.5
3001.24	3414.5
2999.82	3380
2998.4	3373.5
2996.98	3446
2995.56	3338.5
2994.14	3424
2992.72	3445.5
2991.3	3462
2989.88	3492.5
2988.46	3510.5
2987.03	3473
2985.61	3547
2984.19	3575.5
2982.77	3583
2981.34	3548
2979.92	3619.5
2978.49	3537
2977.07	3649
2975.65	3656
2974.22	3669
2972.79	3649.5
2971.37	3645.5
2969.94	3675.5
2968.52	3658.5
2967.09	3759
2965.66	3747.5
2964.23	3700
2962.81	3733.5
2961.38	3765.5
2959.95	3757.5
2958.52	3814
2957.09	3800
2955.66	3799
2954.23	3811
2952.8	3790
2951.37	3797
2949.94	3799.5
2948.5	3752
2947.07	3829
2945.64	3844
2944.21	3857.5
2942.77	3812
2941.34	3857.5
2939.91	3790.5
2938.47	3811
2937.04	3837
2935.6	3862.5
2934.17	3880
2932.73	3876.5
2931.29	3901.5
2929.86	3873
2928.42	3892
2926.98	3858.5
2925.55	3882.5
2924.11	3887
2922.67	3919.5
2921.23	3922
2919.79	3948
2918.35	3907.5
2916.91	3852
2915.47	3900
2914.03	3941.5
2912.59	3926.5
2911.15	3898
2909.71	3984
2908.26	3934
2906.82	3950
2905.38	3946
2903.94	3957
2902.49	3933.5
2901.05	3952
2899.6	4023
2898.16	3981
2896.71	3958.5
2895.27	3975.5
2893.82	4034.5
2892.38	3952
2890.93	4034
2889.48	3988
2888.03	3969.5
2886.59	4021
2885.14	3994
2883.69	3989
2882.24	3932
2880.79	3967.5
2879.34	3949.5
2877.89	4029.5
2876.44	4016.5
2874.99	4058.5
2873.54	3887
2872.09	3990.5
2870.64	4008
2869.18	4029
2867.73	4011.5
2866.28	4034
2864.83	4039.5
2863.37	4047
2861.92	3999
2860.46	4065
2859.01	4018.5
2857.55	4051.5
2856.1	4117
2854.64	4047
2853.19	4010.5
2851.73	4066.5
2850.27	4013
2848.81	4084.5
2847.36	4057
2845.9	4048
2844.44	4120
2842.98	4056
2841.52	4078
2840.06	4114.5
2838.6	4019
2837.14	4123
2835.68	4077.5
2834.22	4112
2832.76	4101
2831.3	4115.5
2829.83	4130.5
2828.37	4170
2826.91	4082
2825.44	4106.5
2823.98	4135
2822.52	4129.5
2821.05	4155
2819.59	4075.5
2818.12	4079
2816.66	4076
2815.19	3990
2813.72	4020.5
2812.26	4019.5
2810.79	4008
2809.32	3966
2807.85	4011.5
2806.38	4011
2804.92	4001
2803.45	4052
2801.98	4027
2800.51	4028
2799.04	4020
2797.57	3987.5
2796.1	3977.5
2794.62	4003.5
2793.15	3983
2791.68	3970.5
2790.21	3977
2788.73	3919
2787.26	3959
2785.79	3954.5
2784.31	3990
2782.84	3976.5
2781.36	3921
2779.89	3917.5
2778.41	3939.5
2776.94	3950.5
2775.46	3983.5
2773.99	3977.5
2772.51	3977
2771.03	3988.5
2769.55	3940
2768.07	3990
2766.6	3966
2765.12	3948
2763.64	3968.5
2762.16	3962
2760.68	3957.5
2759.2	3915.5
2757.72	3929
2756.24	3893
2754.75	3945
2753.27	3958
2751.79	3902.5
2750.31	3921.5
2748.82	3896
2747.34	3892
2745.86	3899.5
2744.37	3912
2742.89	3927.5
2741.4	3894
2739.92	3850
2738.43	3968
2736.94	3940.5
2735.46	3947
2733.97	3903.5
2732.48	3968.5
2731	3972.5
2729.51	3898
2728.02	3931.5
2726.53	3953
2725.04	3995
2723.55	3894.5
2722.06	3920
2720.57	3917.5
2719.08	3927.5
2717.59	3882
2716.1	3911.5
2714.61	3900.5
2713.11	3875
2711.62	3935.5
2710.13	3853
2708.64	3901
2707.14	3864
2705.65	3848
2704.15	3871.5
2702.66	3864
2701.16	3860
2699.67	3873.5
2698.17	3843.5
2696.67	3838.5
2695.18	3828
2693.68	3816.5
2692.18	3825
2690.69	3795.5
2689.19	3804
2687.69	3750.5
2686.19	3826
2684.69	3847
2683.19	3800.5
2681.69	3778
2680.19	3794
2678.69	3784.5
2677.19	3771
2675.68	3784.5
2674.18	3703.5
2672.68	3734.5
2671.18	3766
2669.67	3762.5
2668.17	3720
2666.66	3783.5
2665.16	3791.5
2663.66	3789.5
2662.15	3763
2660.64	3751.5
2659.14	3722.5
2657.63	3695
2656.13	3762.5
2654.62	3669.5
2653.11	3684
2651.6	3740.5
2650.09	3663
2648.58	3711
2647.08	3718
2645.57	3705
2644.06	3731
2642.55	3716
2641.04	3690.5
2639.52	3689.5
2638.01	3649.5
2636.5	3720
2634.99	3706.5
2633.48	3677.5
2631.96	3665
2630.45	3674.5
2628.94	3652.5
2627.42	3564.5
2625.91	3603.5
2624.39	3598
2622.88	3555
2621.36	3570
2619.85	3570
2618.33	3586.5
2616.81	3593
2615.3	3593
2613.78	3597
2612.26	3574
2610.74	3561
2609.22	3536.5
2607.7	3516.5
2606.18	3497.5
2604.66	3494.5
2603.14	3548.5
2601.62	3543
2600.1	3495
2598.58	3482
2597.06	3524
2595.54	3465
2594.01	3493
2592.49	3458.5
2590.97	3453.5
2589.44	3441.5
2587.92	3513
2586.39	3482
2584.87	3507
2583.34	3438
2581.82	3431
2580.29	3434.5
2578.76	3477.5
2577.24	3472
2575.71	3447.5
2574.18	3425.5
2572.65	3403.5
2571.13	3409
2569.6	3415.5
2568.07	3366.5
2566.54	3370.5
2565.01	3384
2563.48	3354
2561.95	3335
2560.42	3329
2558.88	3365
2557.35	3319.5
2555.82	3318.5
2554.29	3312.5
2552.75	3280.5
2551.22	3327
2549.69	3286
2548.15	3282.5
2546.62	3286
2545.08	3220
2543.55	3229
2542.01	3269
2540.47	3205.5
2538.94	3184
2537.4	3204.5
2535.86	3144.5
2534.33	3152
2532.79	3175.5
2531.25	3168
2529.71	3205.5
2528.17	3196.5
2526.63	3150
2525.09	3185.5
2523.55	3148.5
2522.01	3169
2520.47	3138.5
2518.92	3057
2517.38	3120
2515.84	3121
2514.3	3094
2512.75	3083
2511.21	3078.5
2509.67	3040
2508.12	3044.5
2506.58	3035.5
2505.03	3029
2503.49	3054.5
2501.94	3008
2500.39	3012
2498.85	2996
2497.3	3008
2495.75	3005.5
2494.2	3002
2492.65	2962
2491.11	2988
2489.56	2941
2488.01	2957
2486.46	2936.5
2484.91	2980
2483.36	2900
2481.8	2909
2480.25	2867
2478.7	2839
2477.15	2898.5
2475.6	2896.5
2474.04	2858.5
2472.49	2847
2470.93	2822.5
2469.38	2909.5
2467.83	2863.5
2466.27	2856
2464.71	2783.5
2463.16	2797.5
2461.6	2816
2460.05	2770
2458.49	2783
2456.93	2779.5
2455.37	2774
2453.81	2759.5
2452.26	2720.5
2450.7	2706.5
2449.14	2745
2447.58	2687
2446.02	2712.5
2444.46	2730.5
2442.9	2684
2441.33	2644
2439.77	2646.5
2438.21	2687.5
2436.65	2707
2435.08	2641
2433.52	2622
2431.96	2634
2430.39	2642.5
2428.83	2640
2427.26	2618
2425.7	2629.5
2424.13	2631
2422.56	2618.5
2421	2613
2419.43	2556.5
2417.86	2567.5
2416.3	2610.5
2414.73	2549.5
2413.16	2539
2411.59	2553.5
2410.02	2580.5
2408.45	2472.5
2406.88	2510
2405.31	2520
2403.74	2519
2402.17	2568
2400.6	2499.5
2399.02	2476
2397.45	2473.5
2395.88	2482
2394.3	2486.5
2392.73	2468
2391.16	2451
2389.58	2468.5
2388.01	2467.5
2386.43	2416.5
2384.86	2461
2383.28	2477
2381.7	2418
2380.13	2452.5
2378.55	2446
2376.97	2459
2375.39	2442
2373.81	2423
2372.23	2401
2370.65	2453
2369.07	2451
2367.49	2458
2365.91	2408
2364.33	2417
2362.75	2377
2361.17	2374
2359.59	2336.5
2358.01	2366
2356.42	2379
2354.84	2309
2353.25	2312
2351.67	2358.5
2350.09	2349
2348.5	2296
2346.92	2295
2345.33	2301
2343.74	2309.5
2342.16	2315.5
2340.57	2273.5
2338.98	2259
2337.39	2316.5
2335.81	2305
2334.22	2330
2332.63	2282.5
2331.04	2289.5
2329.45	2338
2327.86	2276
2326.27	2283.5
2324.68	2263
2323.09	2259
2321.49	2288.5
2319.9	2249.5
2318.31	2302.5
2316.72	2246
2315.12	2213
2313.53	2234.5
2311.93	2156
2310.34	2189.5
2308.74	2191.5
2307.15	2188
2305.55	2203
2303.96	2201.5
2302.36	2142.5
2300.76	2220.5
2299.17	2122
2297.57	2185
2295.97	2157
2294.37	2111
2292.77	2100
2291.17	2114
2289.57	2119.5
2287.97	2107
2286.37	2088.5
2284.77	2088.5
2283.17	2065
2281.57	2064.5
2279.96	2096
2278.36	2010
2276.76	2038
2275.15	2054
2273.55	2054.5
2271.95	1996
2270.34	2012.5
2268.74	2049.5
2267.13	2023
2265.52	2024
2263.92	2020.5
2262.31	1960
2260.7	1993.5
2259.1	1974
2257.49	1957
2255.88	1974
2254.27	1991.5
2252.66	1980
2251.05	1979
2249.44	1896
2247.83	1955.5
2246.22	1913.5
2244.61	1890
2243	1948.5
2241.39	1943
2239.77	1920
2238.16	1909
2236.55	1858.5
2234.93	1900
2233.32	1921
2231.7	1909.5
2230.09	1839
2228.47	1869
2226.86	1850
2225.24	1846
2223.63	1827.5
2222.01	1881
2220.39	1835.5
2218.77	1862.5
2217.16	1817.5
2215.54	1838
2213.92	1798
2212.3	1784
2210.68	1832.5
2209.06	1841
2207.44	1799
2205.82	1784
2204.19	1802
2202.57	1808
2200.95	1835
2199.33	1809.5
2197.7	1749
2196.08	1801
2194.46	1781
2192.83	1761
2191.21	1782.5
2189.58	1737
2187.96	1757
2186.33	1733.5
2184.7	1757.5
2183.08	1744
2181.45	1731.5
2179.82	1742
2178.19	1764.5
2176.57	1735
2174.94	1720
2173.31	1718.5
2171.68	1705.5
2170.05	1697
2168.42	1660.5
2166.79	1679
2165.16	1727
2163.52	1711
2161.89	1647
2160.26	1691.5
2158.63	1631
2156.99	1696
2155.36	1683
2153.73	1698
2152.09	1691
2150.46	1669
2148.82	1680.5
2147.18	1659
2145.55	1654.5
2143.91	1596
2142.27	1587
2140.64	1609.5
2139	1595
2137.36	1550
2135.72	1620
2134.08	1553
2132.44	1566.5
2130.8	1572
2129.16	1566
2127.52	1560
2125.88	1555
2124.24	1545.5
2122.6	1528
2120.95	1548
2119.31	1489
2117.67	1544.5
2116.02	1527
2114.38	1502
2112.74	1516
2111.09	1488
2109.45	1462
2107.8	1492.5
2106.15	1489
2104.51	1504
2102.86	1484
2101.21	1471
2099.56	1444.5
2097.92	1447
2096.27	1444
2094.62	1471.5
2092.97	1394
2091.32	1453
2089.67	1447.5
2088.02	1453
2086.37	1430
2084.72	1424.5
2083.06	1439
2081.41	1448.5
2079.76	1435
2078.1	1424.5
2076.45	1431
2074.8	1383
2073.14	1396.5
2071.49	1339.5
2069.83	1390.5
2068.18	1379.5
2066.52	1386
2064.86	1393
2063.21	1386.5
2061.55	1341
2059.89	1389
2058.23	1373
2056.57	1353
2054.92	1411
2053.26	1365
2051.6	1343
2049.94	1376
2048.27	1375
2046.61	1340.5
2044.95	1341.5
2043.29	1369.5
2041.63	1340
2039.97	1316
2038.3	1324
2036.64	1349
2034.97	1341
2033.31	1336.5
2031.64	1333
2029.98	1294
2028.31	1328.5
2026.65	1294
2024.98	1289
2023.31	1245
2021.65	1266
2019.98	1283.5
2018.31	1289
2016.64	1277
2014.97	1268
2013.3	1220
2011.63	1243
2009.96	1245.5
2008.29	1245
2006.62	1245
2004.95	1223.5
2003.28	1213
2001.6	1246.5
1999.93	1194.5
1998.26	1233.5
1996.58	1190
1994.91	1219.5
1993.24	1157
1991.56	1213
1989.89	1213
1988.21	1156.5
1986.53	1202.5
1984.86	1199.5
1983.18	1169.5
1981.5	1187.5
1979.82	1187.5
1978.15	1193.5
1976.47	1225
1974.79	1164
1973.11	1138.5
1971.43	1200.5
1969.75	1157
1968.07	1153
1966.38	1171.5
1964.7	1153
1963.02	1120
1961.34	1147
1959.66	1147
1957.97	1154.5
1956.29	1120.5
1954.6	1143.5
1952.92	1137.5
1951.23	1108
1949.55	1115
1947.86	1114
1946.18	1122.5
1944.49	1110
1942.8	1096
1941.11	1098.5
1939.43	1065
1937.74	1081
1936.05	1127.5
1934.36	1101.5
1932.67	1060.5
1930.98	1082
1929.29	1045
1927.6	1068.5
1925.91	1035
1924.21	1059.5
1922.52	1051
1920.83	1045.5
1919.14	1036
1917.44	1027
1915.75	1024
1914.05	1040
1912.36	1036
1910.66	1038.5
1908.97	1019.5
1907.27	1024
1905.58	1038
1903.88	1027.5
1902.18	1031
1900.48	1010
1898.79	1001.5
1897.09	979
1895.39	1001.5
1893.69	993
1891.99	979
1890.29	963
1888.59	973.5
1886.89	981.5
1885.18	956.5
1883.48	961.5
1881.78	959.5
1880.08	956
1878.37	990.5
1876.67	978
1874.96	980.5
1873.26	963.5
1871.55	933
1869.85	935
1868.14	949
1866.44	920
1864.73	932.5
1863.02	958
1861.32	912.5
1859.61	901.5
1857.9	931.5
1856.19	871
1854.48	915
1852.77	897.5
1851.06	849
1849.35	888.5
1847.64	877
1845.93	889
1844.21	857
1842.5	873.5
1840.79	880.5
1839.08	859.5
1837.36	923.5
1835.65	854
1833.93	878
1832.22	864
1830.5	854
1828.79	842
1827.07	865
1825.36	855
1823.64	862.5
1821.92	868
1820.2	816
1818.48	841
1816.77	876
1815.05	831
1813.33	816.5
1811.61	866
1809.89	786
1808.16	805.5
1806.44	810.5
1804.72	793
1803	825
1801.28	775
1799.55	830
1797.83	779.5
1796.11	810.5
1794.38	811
1792.66	821
1790.93	804
1789.21	791
1787.48	783
1785.75	779.5
1784.03	741
1782.3	763.5
1780.57	774.5
1778.84	786
1777.11	719.5
1775.38	804
1773.66	742
1771.93	795.5
1770.19	766
1768.46	797.5
1766.73	765.5
1765	783.5
1763.27	799.5
1761.54	774
1759.8	730.5
1758.07	745
1756.34	740
1754.6	724
1752.87	757
1751.13	748
1749.4	736
1747.66	706
1745.92	766
1744.19	730
1742.45	753
1740.71	751
1738.97	769
1737.23	732
1735.49	782
1733.75	757
1732.01	736.5
1730.27	734
1728.53	782
1726.79	763.5
1725.05	772.5
1723.31	763.5
1721.57	747
1719.82	741
1718.08	732
1716.34	721.5
1714.59	729.5
1712.85	762.5
1711.1	758
1709.36	707
1707.61	728
1705.86	766
1704.12	758.5
1702.37	704
1700.62	740
1698.87	737
1697.12	767
1695.37	725
1693.62	748
1691.87	774.5
1690.12	739
1688.37	733
1686.62	739
1684.87	757.5
1683.12	745.5
1681.36	700.5
1679.61	770.5
1677.86	731
1676.1	727.5
1674.35	768
1672.59	737.5
1670.84	755
1669.08	752
1667.33	752
1665.57	727.5
1663.81	757
1662.06	743
1660.3	702
1658.54	734.5
1656.78	769
1655.02	719
1653.26	751.5
1651.5	719
1649.74	735.5
1647.98	742.5
1646.22	755.5
1644.46	715.5
1642.7	739
1640.93	738
1639.17	735
1637.41	708
1635.64	726
1633.88	703
1632.11	710
1630.35	736
1628.58	690
1626.81	743
1625.05	684
1623.28	706
1621.51	716
1619.75	691
1617.98	673
1616.21	673
1614.44	731.5
1612.67	681
1610.9	676
1609.13	739.5
1607.36	729.5
1605.58	685
1603.81	687
1602.04	685.5
1600.27	689.5
1598.49	663.5
1596.72	680.5
1594.95	680
1593.17	692
1591.4	709.5
1589.62	662.5
1587.84	667
1586.07	696
1584.29	686.5
1582.51	675
1580.74	687
1578.96	642
1577.18	668
1575.4	631.5
1573.62	668
1571.84	653
1570.06	674.5
1568.28	639.5
1566.5	650
1564.72	600
1562.93	664
1561.15	629.5
1559.37	685.5
1557.58	676
1555.8	632
1554.02	647.5
1552.23	638
1550.45	623
1548.66	630
1546.87	644.5
1545.09	599
1543.3	600
1541.51	621
1539.72	629.5
1537.94	607
1536.15	578.5
1534.36	649
1532.57	631
1530.78	612
1528.99	600.5
1527.2	575
1525.4	596
1523.61	602.5
1521.82	594.5
1520.03	592.5
1518.23	578
1516.44	617
1514.65	605
1512.85	624
1511.06	612
1509.26	603.5
1507.46	589.5
1505.67	612.5
1503.87	613
1502.07	597
1500.28	613.5
1498.48	632
1496.68	598.5
1494.88	613.5
1493.08	614
1491.28	606
1489.48	622.5
1487.68	572
1485.88	632.5
1484.08	609
1482.27	647.5
1480.47	614
1478.67	659.5
1476.86	620.5
1475.06	644.5
1473.25	654
1471.45	676
1469.64	639.5
1467.84	680
1466.03	659.5
1464.23	689
1462.42	681
1460.61	688
1458.8	672
1456.99	663
1455.18	634
1453.37	666
1451.56	687
1449.75	688
1447.94	686
1446.13	659
1444.32	654.5
1442.51	633.5
1440.7	627.5
1438.88	659.5
1437.07	652
1435.26	623.5
1433.44	653.5
1431.63	643
1429.81	644
1427.99	641
1426.18	665
1424.36	674
1422.54	687
1420.73	652.5
1418.91	658.5
1417.09	654
1415.27	638
1413.45	645
1411.63	672
1409.81	635
1407.99	627
1406.17	626
1404.35	601.5
1402.53	640.5
1400.7	644
1398.88	651
1397.06	636.5
1395.23	617
1393.41	620
1391.58	632.5
1389.76	644.5
1387.93	625
1386.11	625
1384.28	658
1382.45	646
1380.62	609
1378.8	617.5
1376.97	582.5
1375.14	623.5
1373.31	616.5
1371.48	622
1369.65	582
1367.82	602
1365.99	588
1364.16	600.5
1362.32	595.5
1360.49	606.5
1358.66	610.5
1356.82	608
1354.99	596.5
1353.16	593
1351.32	637
1349.48	632.5
1347.65	629
1345.81	629.5
1343.98	634
1342.14	630
1340.3	620
1338.46	625.5
1336.62	605.5
1334.79	643.5
1332.95	611
1331.11	634.5
1329.27	611.5
1327.42	634
1325.58	592
1323.74	630.5
1321.9	600.5
1320.06	611.5
1318.21	621
1316.37	612
1314.53	609
1312.68	629.5
1310.84	599
1308.99	614
1307.15	626
1305.3	611
1303.45	615
1301.61	603
1299.76	590.5
1297.91	602
1296.06	587.5
1294.21	594.5
1292.36	604.5
1290.51	593
1288.66	643
1286.81	612.5
1284.96	619.5
1283.11	614
1281.26	624
1279.4	604.5
1277.55	628.5
1275.7	610
1273.84	613.5
1271.99	631.5
1270.13	623.5
1268.28	635
1266.42	633.5
1264.56	607.5
1262.71	629
1260.85	605
1258.99	629
1257.13	621
1255.27	622.5
1253.41	596
1251.56	625.5
1249.7	608.5
1247.83	594.5
1245.97	585
1244.11	614.5
1242.25	613
1240.39	591.5
1238.52	616
1236.66	603.5
1234.8	604
1232.93	617
1231.07	552
1229.2	588.5
1227.34	597.5
1225.47	595
1223.6	598
1221.74	564
1219.87	552.5
1218	558
1216.13	578
1214.26	581.5
1212.39	603
1210.53	592.5
1208.65	588
1206.78	572.5
1204.91	607.5
1203.04	589
1201.17	541.5
1199.3	549.5
1197.42	579.5
1195.55	574.5
1193.68	555.5
1191.8	563
1189.93	572.5
1188.05	578
1186.17	598.5
1184.3	597
1182.42	570.5
1180.54	547.5
1178.67	552.5
1176.79	582.5
1174.91	586
1173.03	569
1171.15	575.5
1169.27	579
1167.39	593.5
1165.51	561.5
1163.63	564
1161.75	587
1159.86	577
1157.98	567
1156.1	579.5
1154.21	589
1152.33	555
1150.44	581
1148.56	629
1146.67	590
1144.79	570.5
1142.9	577.5
1141.01	580
1139.12	587
1137.24	597.5
1135.35	581
1133.46	596.5
1131.57	573.5
1129.68	593
1127.79	604.5
1125.9	599
1124.01	562
1122.12	569
1120.22	595.5
1118.33	592.5
1116.44	609
1114.54	597.5
1112.65	614
1110.75	606
1108.86	608
1106.96	594
1105.07	595
1103.17	618
1101.27	627.5
1099.38	622
1097.48	621.5
1095.58	591
1093.68	639
1091.78	621.5
1089.88	630
1087.98	638
1086.08	620
1084.18	636
1082.28	637
1080.38	678
1078.47	630
1076.57	662.5
1074.67	607.5
1072.76	639
1070.86	624.5
1068.95	615
1067.05	631.5
1065.14	580
1063.24	605
1061.33	622
1059.42	634.5
1057.51	629
1055.6	652.5
1053.7	675.5
1051.79	675
1049.88	670
1047.97	645
1046.06	695
1044.14	657.5
1042.23	626
1040.32	661
1038.41	632
1036.5	666
1034.58	655.5
1032.67	645.5
1030.75	639
1028.84	616
1026.92	622.5
1025.01	593
1023.09	625.5
1021.17	624
1019.26	612.5
1017.34	617.5
1015.42	626
1013.5	651.5
1011.58	595
1009.66	612
1007.74	616.5
1005.82	629.5
1003.9	640
1001.98	669.5
1000.06	685
998.134	638
996.212	699.5
994.288	702
992.364	685.5
990.44	667.5
988.515	688
986.589	725.5
984.663	713
982.737	726.5
980.81	687.5
978.883	752.5
976.955	709
975.027	723
973.098	758
971.169	754
969.239	732.5
967.308	752
965.378	734
963.447	766.5
961.516	728
959.583	782
957.65	760.5
955.718	784
953.784	750
951.85	808
949.916	784.5
947.981	818
946.045	783
944.109	809
942.173	824.5
940.236	821.5
938.298	813
936.36	777.5
934.422	831.5
932.484	763.5
930.544	773.5
928.604	741
926.664	730.5
924.724	738
922.782	740
920.84	728
918.898	722
916.955	756
915.012	760
913.068	722
911.124	696
909.18	710.5
907.235	701.5
905.289	712
903.343	714
901.397	724.5
899.45	724.5
897.502	717.5
895.554	748
893.605	725
891.657	770
889.707	741.5
887.758	787
885.807	755.5
883.856	778
881.905	790.5
879.953	827
878.001	778.5
876.048	812
874.094	762
872.14	762
870.186	772
868.232	788
866.276	786.5
864.321	821.5
862.365	842
860.408	800.5
858.451	789
856.493	808.5
854.535	797.5
852.576	798.5
850.617	817.5
848.658	797.5
846.698	791.5
844.737	746
842.776	769.5
840.814	762.5
838.852	762.5
836.89	739.5
834.927	753.5
832.963	792.5
830.999	767
829.035	794.5
827.07	780
825.105	814
823.139	732.5
821.172	760.5
819.206	764
817.238	750
815.27	728.5
813.301	741.5
811.333	741
809.363	733.5
807.394	765
805.424	718
803.453	731
801.482	764.5
799.509	742
797.538	724
795.565	705.5
793.592	713
791.618	745
789.643	763
787.669	717.5
785.693	752
783.718	749.5
781.742	759
779.765	730
777.788	739.5
775.811	746
773.832	736.5
771.853	749
769.875	735.5
767.895	707
765.915	733
763.934	738.5
761.953	757
759.972	750.5
757.99	749.5
756.007	760
754.024	741
752.041	724
750.056	729
748.072	767
746.087	783.5
744.102	693.5
742.116	723
740.13	781.5
738.143	744.5
736.155	746
734.167	751
732.179	779
730.19	746.5
728.2	767.5
726.21	756.5
724.22	761.5
722.229	788
720.237	773
718.246	778
716.253	771.5
714.26	765
712.267	793
710.273	770.5
708.279	784.5
706.284	787
704.289	770
702.293	770.5
700.296	787.5
698.3	764
696.303	795
694.305	782
692.307	767
690.307	785.5
688.308	780.5
686.309	795.5
684.308	825.5
682.308	820.5
680.306	805
678.304	802.5
676.302	787.5
674.3	821.5
672.296	840.5
670.293	828
668.289	825
666.284	826
664.278	799.5
662.273	792
660.266	838.5
658.26	814
656.252	835.5
654.244	834
652.237	810.5
650.227	820.5
648.218	839
646.209	827.5
644.198	823.5
642.188	810.5
640.177	805
638.165	828
636.153	850.5
634.14	837
632.128	857
630.113	856.5
628.099	843
626.085	809.5
624.07	848.5
622.054	849.5
620.038	861.5
618.021	897
616.004	875.5
613.986	891.5
611.968	862.5
609.949	868.5
607.93	854.5
605.911	873
603.891	879
601.87	882
599.848	874
597.827	865.5
595.805	847.5
593.782	863.5
591.759	900
589.735	878
587.711	880
585.687	875
583.661	914
581.636	848.5
579.609	876
577.583	911.5
575.555	852
573.527	880.5
571.5	900
569.471	894
567.441	932.5
565.412	942
563.382	918
561.351	931.5
559.32	973.5
557.289	939.5
555.257	905
553.223	954.5
551.19	1010.5
549.157	974.5
547.122	963.5
545.088	1016.5
543.053	1026.5
541.017	1027
538.981	1076
536.943	1071.5
534.907	1217
532.869	1272.5
530.831	1490.5
528.792	1862.5
526.752	2421.5
524.713	3232
522.673	3954
520.632	4134
518.591	3600
516.549	2870
514.507	2204.5
512.464	1710.5
510.42	1407
508.377	1281
506.332	1151
504.288	1078.5
502.242	1107
500.196	1054
498.15	1052
496.104	1021.5
494.056	1026.5
492.008	1014
489.96	1012
487.911	994.5
485.862	1024
483.812	980.5
481.761	1010
479.71	980.5
477.659	978.5
475.607	1016.5
473.555	1000
471.502	1026
469.448	1017.5
467.395	981.5
465.34	968.5
463.285	977.5
461.23	987.5
459.174	1024
457.118	978
455.061	1005
453.003	974.5
450.945	992.5
448.887	1006.5
446.828	1036
444.768	983.5
442.708	1024
440.647	1024
438.587	1034.5
436.525	1021.5
434.463	1033.5
432.4	1025
430.337	1053.5
428.274	1009.5
426.21	1039.5
424.145	1038
422.079	1056.5
420.014	1041.5
417.948	1057
415.882	1015
413.814	1041.5
411.746	1059.5
409.679	1040.5
407.609	1055.5
405.54	1000.5
403.47	1047.5
401.401	1065.5
399.329	1067
397.258	1002.5
395.187	1070
393.114	1057
391.041	1057.5
388.968	1011.5
386.895	1042.5
384.82	1074
382.745	1002
380.67	1063.5
378.594	1060.5
376.517	1076
374.44	1067
372.363	1033
370.286	1064.5
368.207	1052
366.128	1077.5
364.049	1060.5
361.969	1050
359.888	1064
357.807	1064
355.725	1072
353.643	1105.5
351.561	1103
349.477	1088.5
347.394	1044
345.31	1064
343.226	1080.5
341.141	1115.5
339.055	1125.5
336.968	1091.5
334.882	1103
332.795	1118.5
330.707	1120
328.618	1151.5
326.53	1145.5
324.44	1171.5
322.351	1123
320.26	1180.5
318.17	1156
316.078	1174
313.987	1162.5
311.895	1179.5
309.802	1134
307.708	1186.5
305.614	1285
303.52	1272.5
301.425	1253.5
299.329	1217
297.233	1233
295.137	1205.5
293.039	1196.5
290.942	1222
288.844	1218.5
286.745	1230
284.647	1182.5
282.546	1220.5
280.446	1291
278.346	1250.5
276.245	1235.5
274.143	1218
272.041	1251.5
269.939	1273
267.835	1280
265.731	1259.5
263.627	1280
261.522	1293
259.417	1319.5
257.311	1328.5
255.204	1303
253.098	1298
250.99	1348.5
248.882	1311
246.774	1354.5
244.664	1411
242.555	1391
240.445	1365.5
238.334	1427.5
236.223	1445
234.112	1481
232	1483
229.888	1514
227.775	1459
225.661	1542
223.546	1577.5
221.431	1582
219.316	1526
217.201	1585
215.084	1617
212.967	1645
210.85	1674.5
208.732	1696
206.614	1727.5
204.495	1773
202.375	1760
200.256	1760.5
198.135	1813.5
196.014	1820
193.893	1891
191.771	1866.5
189.648	1890
187.525	1905.5
185.401	1927.5
183.277	1993
181.152	1960
179.027	2019
176.901	2034.5
174.775	2067
172.648	2080
170.521	2131.5
168.393	2103
166.265	2173
164.136	2146.5
162.007	2215
159.876	2233.5
157.746	2202.5
155.615	2220
153.483	2254
151.351	2297.5
149.219	2354
147.086	2365.5
144.952	2396
142.818	2468
140.684	2450
138.548	2512
136.413	2547
134.276	2599.5
132.139	2670.5
130.002	2731.5
127.864	2803
125.725	2823
123.587	2847
121.447	2934
119.307	3009
117.166	3067
115.026	3122
112.885	3187.5
110.743	3240
108.6	3307
106.456	3326.5
104.313	3304
102.169	3226
100.023	3124.5
97.8789	2962.5
95.7328	2657
93.5869	2402
91.4392	2074
89.2919	1697
87.1447	1297
84.9959	1010
