3528.51	314.5
3527.23	337
3525.95	362
3524.67	361.5
3523.39	358
3522.1	381.5
3520.82	371
3519.54	366
3518.26	371
3516.97	365
3515.69	369.5
3514.4	364
3513.12	362
3511.84	386.5
3510.55	387
3509.26	390
3507.98	395
3506.69	409
3505.41	398
3504.12	403
3502.83	405
3501.54	404.5
3500.26	411.5
3498.97	424
3497.68	437
3496.39	444
3495.1	451
3493.81	454.5
3492.52	455.5
3491.23	466.5
3489.94	470.5
3488.65	479.5
3487.36	475
3486.07	472.5
3484.78	488.5
3483.49	475.5
3482.19	496
3480.9	507
3479.61	526.5
3478.31	527
3477.02	541.5
3475.73	550.5
3474.43	542
3473.14	523
3471.84	534.5
3470.54	534
3469.25	552.5
3467.95	551
3466.66	531
3465.36	558
3464.06	573.5
3462.76	577.5
3461.46	564.5
3460.17	594
3458.87	589
3457.57	581
3456.27	582.5
3454.97	585
3453.67	587
3452.37	584
3451.07	610.5
3449.77	606.5
3448.47	635
3447.16	644
3445.86	652
3444.56	671
3443.26	651.5
3441.95	669.5
3440.65	661.5
3439.35	681
3438.04	687.5
3436.74	705.5
3435.43	724.5
3434.13	737.5
3432.82	755.5
3431.52	732.5
3430.21	785.5
3428.9	792.5
3427.6	797.5
3426.29	790
3424.98	787
3423.67	819
3422.36	815
3421.06	831.5
3419.75	859
3418.44	871.5
3417.13	876.5
3415.82	899.5
3414.51	909.5
3413.2	907
3411.88	904
3410.57	933
3409.26	921.5
3407.95	926
3406.64	941.5
3405.32	956.5
3404.01	957.5
3402.7	973
3401.38	971
3400.07	984
3398.75	981.5
3397.44	975
3396.12	1004
3394.81	1014
3393.49	1023.5
3392.18	1016
3390.86	1024
3389.54	1015
3388.23	1062
3386.91	1044
3385.59	1071.5
3384.27	1079.5
3382.95	1069.5
3381.63	1080.5
3380.31	1083.5
3378.99	1103
3377.67	1122.5
3376.35	1116
3375.03	1159
3373.71	1143.5
3372.39	1150
3371.07	1191
3369.75	1213
3368.42	1184
3367.1	1219
3365.78	1201
3364.45	1241
3363.13	1218
3361.81	1215.5
3360.48	1251
3359.16	1259.5
3357.83	1284
3356.51	1273
3355.18	1263.5
3353.85	1282
3352.53	1272
3351.2	1290.5
3349.87	1296
3348.54	1270.5
3347.22	1287
3345.89	1307.5
3344.56	1340.5
3343.23	1317.5
3341.9	1344
3340.57	1314
3339.24	1323
3337.91	1341
3336.58	1348
3335.25	1341.5
3333.92	1340
3332.58	1376
3331.25	1364
3329.92	1382.5
3328.59	1410.5
3327.25	1382.5
3325.92	1403
3324.58	1381.5
3323.25	1386
3321.92	1421.5
3320.58	1413
3319.25	1437
3317.91	1431.5
3316.57	1425.5
3315.24	1441.5
3313.9	1476.5
3312.56	1501
3311.23	1498.5
3309.89	1497
3308.55	1515
3307.21	1493
3305.87	1510.5
3304.53	1505.5
3303.19	1550.5
3301.85	1538
3300.51	1529.5
3299.17	1545
3297.83	1542.5
3296.49	1536.5
3295.15	1578
3293.81	1570.5
3292.46	1547
3291.12	1575
3289.78	1562.5
3288.43	1555.5
3287.09	1581
3285.75	1564
3284.4	1592.5
3283.06	1633
3281.71	1611
3280.37	1631
3279.02	1624.5
3277.67	1647
3276.33	1690
3274.98	1671
3273.63	1675
3272.28	1682.5
3270.94	1695.5
3269.59	1730.5
3268.24	1747.5
3266.89	1753.5
3265.54	1789.5
3264.19	1861.5
3262.84	1835
3261.49	1862
3260.14	1910
3258.79	1889.5
3257.44	1955
3256.08	2027.5
3254.73	2059.5
3253.38	2087
3252.03	2123.5
3250.67	2211
3249.32	2251
3247.96	2297
3246.61	2321
3245.26	2401.5
3243.9	2493
3242.54	2516
3241.19	2602
3239.83	2654.5
3238.48	2735.5
3237.12	2815.5
3235.76	2907
3234.41	2906
3233.05	2968
3231.69	3070
3230.33	3130
3228.97	3182
3227.61	3197.5
3226.25	3302
3224.89	3366.5
3223.53	3356
3222.17	3393
3220.81	3437.5
3219.45	3481.5
3218.09	3551
3216.72	3551.5
3215.36	3584.5
3214	3638
3212.63	3624
3211.27	3630
3209.91	3714
3208.54	3687
3207.18	3745
3205.81	3709.5
3204.45	3784
3203.08	3809
3201.71	3825.5
3200.35	3839
3198.98	3892
3197.61	3933
3196.25	3937.5
3194.88	3880.5
3193.51	3969
3192.14	3970
3190.77	3994
3189.4	3973.5
3188.03	3980.5
3186.66	4027.5
3185.29	4047.5
3183.92	4116.5
3182.55	4092
3181.18	4017
3179.81	4143.5
3178.44	4220
3177.06	4177
3175.69	4204.5
3174.32	4262
3172.94	4318
3171.57	4350.5
3170.2	4394.5
3168.82	4406
3167.45	4387
3166.07	4422
3164.69	4507
3163.32	4536.5
3161.94	4541
3160.56	4565
3159.19	4583
3157.81	4633.5
3156.43	4665.5
3155.05	4736.5
3153.67	4754
3152.3	4769
3150.92	4807.5
3149.54	4881
3148.16	4880
3146.78	4889
3145.4	4905.5
3144.01	4933
3142.63	4997
3141.25	5005
3139.87	5056
3138.49	5146
3137.1	5089
3135.72	5179
3134.34	5215
3132.95	5211
3131.57	5238.5
3130.18	5278.5
3128.8	5334
3127.41	5358.5
3126.03	5421
3124.64	5436
3123.25	5432.5
3121.87	5478.5
3120.48	5574
3119.09	5607
3117.7	5608.5
3116.32	5614.5
3114.93	5603
3113.54	5728.5
3112.15	5686.5
3110.76	5684.5
3109.37	5700.5
3107.98	5779
3106.59	5733
3105.2	5771
3103.8	5749.5
3102.41	5824
3101.02	5892.5
3099.63	5902.5
3098.23	5878
3096.84	5906.5
3095.45	5907
3094.05	5979.5
3092.66	5983.5
3091.26	6040
3089.87	6017
3088.47	6038
3087.08	6060
3085.68	6032
3084.28	6102
3082.89	6152
3081.49	6144
3080.09	6177.5
3078.69	6213.5
3077.3	6159.5
3075.9	6206
3074.5	6246
3073.1	6195.5
3071.7	6239
3070.3	6304.5
3068.9	6225.5
3067.5	6268
3066.09	6327.5
3064.69	6313
3063.29	6310.5
3061.89	6356
3060.48	6343.5
3059.08	6376.5
3057.68	6433
3056.27	6493
3054.87	6419.5
3053.46	6517.5
3052.06	6509
3050.65	6557.5
3049.25	6532
3047.84	6539
3046.44	6628
3045.03	6607.5
3043.62	6659.5
3042.21	6686.5
3040.81	6690
3039.4	6748.5
3037.99	6746
3036.58	6776.5
3035.17	6757.5
3033.76	6708
3032.35	6809
3030.94	6777.5
3029.53	6881
3028.12	6847.5
3026.71	6851
3025.29	6870.5
3023.88	6811
3022.47	6923
3021.06	6864.5
3019.64	6925.5
3018.23	6893
3016.82	6881.5
3015.4	6895
3013.99	6973.5
3012.57	6939.5
3011.15	6980
3009.74	6919.5
3008.32	6988
3006.91	7019.5
3005.49	7055
3004.07	7063.5
3002.65	6998
3001.24	7128
2999.82	7086.5
2998.4	7127.5
2996.98	7200
2995.56	7210
2994.14	7279
2992.72	7274.5
2991.3	7312.5
2989.88	7316.5
2988.46	7347
2987.03	7430.5
2985.61	7459
2984.19	7510.5
2982.77	7510
2981.34	7636.5
2979.92	7640.5
2978.49	7663.5
2977.07	7678.5
2975.65	7737.5
2974.22	7763.5
2972.79	7846
2971.37	7822
2969.94	7834.5
2968.52	7820
2967.09	7872
2965.66	7939.5
2964.23	7928.5
2962.81	7951
2961.38	8028.5
2959.95	8043
2958.52	8022.5
2957.09	8014
2955.66	8044.5
2954.23	8031
2952.8	8093
2951.37	8039
2949.94	8085
2948.5	8084
2947.07	8072.5
2945.64	8094
2944.21	8182.5
2942.77	8185
2941.34	8232
2939.91	8229
2938.47	8152.5
2937.04	8199.5
2935.6	8300.5
2934.17	8313.5
2932.73	8327.5
2931.29	8300.5
2929.86	8362.5
2928.42	8391.5
2926.98	8407.5
2925.55	8383
2924.11	8440.5
2922.67	8370.5
2921.23	8407.5
2919.79	8393.5
2918.35	8457.5
2916.91	8419
2915.47	8492.5
2914.03	8392.5
2912.59	8458.5
2911.15	8460
2909.71	8507
2908.26	8534.5
2906.82	8590
2905.38	8590.5
2903.94	8594
2902.49	8615.5
2901.05	8516.5
2899.6	8612
2898.16	8597.5
2896.71	8694
2895.27	8634.5
2893.82	8636.5
2892.38	8730.5
2890.93	8677.5
2889.48	8622
2888.03	8664.5
2886.59	8706
2885.14	8655
2883.69	8669
2882.24	8683.5
2880.79	8772
2879.34	8690
2877.89	8717.5
2876.44	8769.5
2874.99	8784.5
2873.54	8807.5
2872.09	8749
2870.64	8791
2869.18	8729
2867.73	8800.5
2866.28	8792.5
2864.83	8817.5
2863.37	8813.5
2861.92	8818
2860.46	8840.5
2859.01	8846
2857.55	8878
2856.1	8871.5
2854.64	8840
2853.19	8870.5
2851.73	8895.5
2850.27	8820
2848.81	8815
2847.36	8888.5
2845.9	8791
2844.44	8887
2842.98	8888.5
2841.52	8871.5
2840.06	8904.5
2838.6	8791.5
2837.14	8831
2835.68	8814.5
2834.22	8799.5
2832.76	8796
2831.3	8749.5
2829.83	8769.5
2828.37	8761
2826.91	8754
2825.44	8751.5
2823.98	8827
2822.52	8814
2821.05	8754
2819.59	8748
2818.12	8749.5
2816.66	8767
2815.19	8736
2813.72	8752.5
2812.26	8701.5
2810.79	8749
2809.32	8765
2807.85	8778.5
2806.38	8754.5
2804.92	8824.5
2803.45	8764.5
2801.98	8751.5
2800.51	8725
2799.04	8669
2797.57	8683.5
2796.1	8758.5
2794.62	8673.5
2793.15	8692
2791.68	8629
2790.21	8630.5
2788.73	8637.5
2787.26	8610
2785.79	8685
2784.31	8699.5
2782.84	8637
2781.36	8693
2779.89	8649
2778.41	8635
2776.94	8691
2775.46	8714
2773.99	8645
2772.51	8738.5
2771.03	8782.5
2769.55	8700.5
2768.07	8717.5
2766.6	8839
2765.12	8766
2763.64	8839
2762.16	8753.5
2760.68	8768.5
2759.2	8755.5
2757.72	8726.5
2756.24	8738
2754.75	8705
2753.27	8722.5
2751.79	8705
2750.31	8704.5
2748.82	8718.5
2747.34	8713
2745.86	8751.5
2744.37	8697
2742.89	8677
2741.4	8722
2739.92	8625
2738.43	8663
2736.94	8650.5
2735.46	8622
2733.97	8610
2732.48	8654.5
2731	8647
2729.51	8682
2728.02	8587.5
2726.53	8647.5
2725.04	8664
2723.55	8647.5
2722.06	8675.5
2720.57	8631.5
2719.08	8616
2717.59	8628.5
2716.1	8591.5
2714.61	8549.5
2713.11	8622
2711.62	8575.5
2710.13	8559.5
2708.64	8572.5
2707.14	8613
2705.65	8549
2704.15	8514
2702.66	8509
2701.16	8500
2699.67	8514.5
2698.17	8464
2696.67	8472.5
2695.18	8384.5
2693.68	8486.5
2692.18	8413.5
2690.69	8410.5
2689.19	8400.5
2687.69	8433.5
2686.19	8356.5
2684.69	8388
2683.19	8305
2681.69	8326.5
2680.19	8281.5
2678.69	8209.5
2677.19	8271
2675.68	8302.5
2674.18	8291.5
2672.68	8284.5
2671.18	8222
2669.67	8266
2668.17	8245
2666.66	8199.5
2665.16	8209
2663.66	8219
2662.15	8187
2660.64	8182
2659.14	8175
2657.63	8194
2656.13	8144.5
2654.62	8149
2653.11	8195.5
2651.6	8100.5
2650.09	8125.5
2648.58	8102
2647.08	8048
2645.57	8086
2644.06	8015
2642.55	8047.5
2641.04	7960
2639.52	7977.5
2638.01	7892.5
2636.5	7930.5
2634.99	7898
2633.48	7906
2631.96	7874.5
2630.45	7812
2628.94	7797
2627.42	7851
2625.91	7860.5
2624.39	7867.5
2622.88	7882.5
2621.36	7875
2619.85	7805.5
2618.33	7794
2616.81	7769.5
2615.3	7757
2613.78	7778.5
2612.26	7703.5
2610.74	7761.5
2609.22	7757
2607.7	7631.5
2606.18	7638
2604.66	7621
2603.14	7636
2601.62	7601
2600.1	7580.5
2598.58	7576.5
2597.06	7516
2595.54	7428.5
2594.01	7520.5
2592.49	7487.5
2590.97	7534
2589.44	7548.5
2587.92	7486
2586.39	7515.5
2584.87	7500
2583.34	7518
2581.82	7434.5
2580.29	7451.5
2578.76	7391
2577.24	7460
2575.71	7454.5
2574.18	7439.5
2572.65	7465.5
2571.13	7451
2569.6	7416
2568.07	7469.5
2566.54	7464.5
2565.01	7409.5
2563.48	7409.5
2561.95	7372.5
2560.42	7344
2558.88	7340
2557.35	7299.5
2555.82	7303.5
2554.29	7268
2552.75	7272
2551.22	7186.5
2549.69	7169.5
2548.15	7106.5
2546.62	7180
2545.08	7092
2543.55	7127.5
2542.01	7075
2540.47	7129.5
2538.94	7146.5
2537.4	7106
2535.86	7020
2534.33	7029
2532.79	7014.5
2531.25	7037.5
2529.71	6976.5
2528.17	6971
2526.63	6960.5
2525.09	6933
2523.55	6890.5
2522.01	6894
2520.47	6876
2518.92	6833.5
2517.38	6829.5
2515.84	6837.5
2514.3	6724
2512.75	6735.5
2511.21	6728.5
2509.67	6659.5
2508.12	6707.5
2506.58	6635
2505.03	6594.5
2503.49	6586.5
2501.94	6526.5
2500.39	6564.5
2498.85	6555
2497.3	6524
2495.75	6547
2494.2	6466
2492.65	6421.5
2491.11	6436
2489.56	6401
2488.01	6382
2486.46	6374
2484.91	6373.5
2483.36	6310
2481.8	6397.5
2480.25	6322.5
2478.7	6298
2477.15	6230
2475.6	6259
2474.04	6221
2472.49	6185
2470.93	6184.5
2469.38	6091
2467.83	6091.5
2466.27	6110.5
2464.71	6078.5
2463.16	6042
2461.6	6071.5
2460.05	6020.5
2458.49	6004.5
2456.93	5968.5
2455.37	5964.5
2453.81	5906.5
2452.26	5929
2450.7	5859
2449.14	5851
2447.58	5823
2446.02	5796
2444.46	5765
2442.9	5747
2441.33	5787
2439.77	5695
2438.21	5783
2436.65	5688.5
2435.08	5722.5
2433.52	5695
2431.96	5671
2430.39	5663
2428.83	5648
2427.26	5688
2425.7	5615.5
2424.13	5603.5
2422.56	5610.5
2421	5600.5
2419.43	5558.5
2417.86	5540.5
2416.3	5556
2414.73	5536
2413.16	5556.5
2411.59	5569.5
2410.02	5527
2408.45	5486.5
2406.88	5526.5
2405.31	5496.5
2403.74	5503
2402.17	5488
2400.6	5465.5
2399.02	5469
2397.45	5373.5
2395.88	5439
2394.3	5464
2392.73	5421.5
2391.16	5438.5
2389.58	5391
2388.01	5396
2386.43	5438
2384.86	5395.5
2383.28	5393
2381.7	5404
2380.13	5440.5
2378.55	5369.5
2376.97	5409
2375.39	5345
2373.81	5334.5
2372.23	5304.5
2370.65	5311
2369.07	5284.5
2367.49	5243.5
2365.91	5244.5
2364.33	5208.5
2362.75	5227.5
2361.17	5127
2359.59	5198
2358.01	5179.5
2356.42	5193
2354.84	5168
2353.25	5170
2351.67	5172.5
2350.09	5162.5
2348.5	5118
2346.92	5167
2345.33	5087
2343.74	5101
2342.16	5089
2340.57	5091
2338.98	5047.5
2337.39	5050
2335.81	5042.5
2334.22	5057
2332.63	5065
2331.04	5027.5
2329.45	5021
2327.86	4988.5
2326.27	4976
2324.68	4973
2323.09	4947
2321.49	4934
2319.9	4892
2318.31	4888
2316.72	4851
2315.12	4842
2313.53	4871
2311.93	4825.5
2310.34	4784
2308.74	4781.5
2307.15	4762.5
2305.55	4705
2303.96	4690.5
2302.36	4658
2300.76	4700.5
2299.17	4655.5
2297.57	4663
2295.97	4601.5
2294.37	4616
2292.77	4617
2291.17	4579
2289.57	4575.5
2287.97	4619.5
2286.37	4558.5
2284.77	4633.5
2283.17	4594
2281.57	4595
2279.96	4576.5
2278.36	4569
2276.76	4503.5
2275.15	4518
2273.55	4471
2271.95	4488.5
2270.34	4490
2268.74	4422.5
2267.13	4412
2265.52	4419
2263.92	4411
2262.31	4388
2260.7	4376.5
2259.1	4374
2257.49	4354
2255.88	4378.5
2254.27	4343.5
2252.66	4289
2251.05	4309.5
2249.44	4321
2247.83	4309
2246.22	4321
2244.61	4307.5
2243	4328
2241.39	4265.5
2239.77	4244
2238.16	4218.5
2236.55	4235
2234.93	4213
2233.32	4150.5
2231.7	4185.5
2230.09	4137
2228.47	4159
2226.86	4115.5
2225.24	4094
2223.63	4138.5
2222.01	4077.5
2220.39	4074
2218.77	4060
2217.16	4004.5
2215.54	4011.5
2213.92	3980
2212.3	3969
2210.68	3988.5
2209.06	4023
2207.44	3983.5
2205.82	3930
2204.19	3958.5
2202.57	3915
2200.95	3911.5
2199.33	3880.5
2197.7	3915.5
2196.08	3843
2194.46	3832
2192.83	3881.5
2191.21	3865
2189.58	3858.5
2187.96	3807.5
2186.33	3830.5
2184.7	3770
2183.08	3760.5
2181.45	3782.5
2179.82	3732
2178.19	3732
2176.57	3707.5
2174.94	3699.5
2173.31	3671
2171.68	3696.5
2170.05	3668.5
2168.42	3688.5
2166.79	3642.5
2165.16	3613
2163.52	3553
2161.89	3594.5
2160.26	3631.5
2158.63	3591
2156.99	3567
2155.36	3589.5
2153.73	3550
2152.09	3501.5
2150.46	3527
2148.82	3507.5
2147.18	3444
2145.55	3486.5
2143.91	3437
2142.27	3461
2140.64	3437.5
2139	3387
2137.36	3415.5
2135.72	3393.5
2134.08	3359.5
2132.44	3349
2130.8	3347.5
2129.16	3344.5
2127.52	3295
2125.88	3227.5
2124.24	3230
2122.6	3242
2120.95	3215.5
2119.31	3198.5
2117.67	3235.5
2116.02	3162
2114.38	3204.5
2112.74	3160
2111.09	3168
2109.45	3177
2107.8	3168
2106.15	3106.5
2104.51	3090
2102.86	3100.5
2101.21	3102.5
2099.56	3053
2097.92	3034
2096.27	3064
2094.62	3050
2092.97	3063
2091.32	3073
2089.67	3068
2088.02	3045.5
2086.37	3030.5
2084.72	3031.5
2083.06	2992
2081.41	3056.5
2079.76	2931
2078.1	2974
2076.45	2984
2074.8	2938
2073.14	2990.5
2071.49	2984.5
2069.83	2964
2068.18	2933
2066.52	2930
2064.86	2918
2063.21	2915.5
2061.55	2898
2059.89	2891.5
2058.23	2896
2056.57	2917
2054.92	2873
2053.26	2867.5
2051.6	2832
2049.94	2850.5
2048.27	2804.5
2046.61	2808.5
2044.95	2809
2043.29	2796.5
2041.63	2791.5
2039.97	2789
2038.3	2769
2036.64	2788
2034.97	2738.5
2033.31	2739.5
2031.64	2735.5
2029.98	2727.5
2028.31	2663
2026.65	2680
2024.98	2666
2023.31	2613.5
2021.65	2656
2019.98	2612.5
2018.31	2610
2016.64	2612
2014.97	2605
2013.3	2581.5
2011.63	2604.5
2009.96	2580
2008.29	2589.5
2006.62	2509
2004.95	2530.5
2003.28	2574
2001.6	2502.5
1999.93	2534
1998.26	2536.5
1996.58	2539.5
1994.91	2502.5
1993.24	2435
1991.56	2469.5
1989.89	2483
1988.21	2457.5
1986.53	2477.5
1984.86	2451
1983.18	2443.5
1981.5	2442
1979.82	2421.5
1978.15	2420
1976.47	2421.5
1974.79	2397
1973.11	2364.5
1971.43	2353.5
1969.75	2385
1968.07	2319
1966.38	2334
1964.7	2332.5
1963.02	2280
1961.34	2283
1959.66	2279
1957.97	2276
1956.29	2270
1954.6	2253
1952.92	2231
1951.23	2234
1949.55	2247
1947.86	2241
1946.18	2241.5
1944.49	2217
1942.8	2200.5
1941.11	2177
1939.43	2214
1937.74	2167
1936.05	2170.5
1934.36	2165.5
1932.67	2141.5
1930.98	2149
1929.29	2108.5
1927.6	2146
1925.91	2081.5
1924.21	2092.5
1922.52	2105
1920.83	2076
1919.14	2110
1917.44	2086
1915.75	2076.5
1914.05	2053
1912.36	2055.5
1910.66	2072.5
1908.97	2046.5
1907.27	2018
1905.58	2017
1903.88	2040.5
1902.18	2026
1900.48	1999
1898.79	1985.5
1897.09	1978
1895.39	1959.5
1893.69	1947
1891.99	1929.5
1890.29	1906.5
1888.59	1932
1886.89	1892
1885.18	1907.5
1883.48	1921
1881.78	1891
1880.08	1873
1878.37	1863
1876.67	1820.5
1874.96	1834.5
1873.26	1806
1871.55	1832.5
1869.85	1782.5
1868.14	1797.5
1866.44	1806.5
1864.73	1814.5
1863.02	1806.5
1861.32	1790.5
1859.61	1770
1857.9	1755
1856.19	1742.5
1854.48	1749.5
1852.77	1737
1851.06	1712
1849.35	1722.5
1847.64	1721.5
1845.93	1747.5
1844.21	1747.5
1842.5	1728
1840.79	1748
1839.08	1717
1837.36	1686.5
1835.65	1690
1833.93	1677.5
1832.22	1657.5
1830.5	1636.5
1828.79	1652
1827.07	1630.5
1825.36	1657.5
1823.64	1639.5
1821.92	1592
1820.2	1595.5
1818.48	1601.5
1816.77	1579
1815.05	1587.5
1813.33	1595.5
1811.61	1571.5
1809.89	1574.5
1808.16	1553.5
1806.44	1585
1804.72	1562
1803	1554.5
1801.28	1541.5
1799.55	1533.5
1797.83	1534
1796.11	1525
1794.38	1520
1792.66	1520
1790.93	1494
1789.21	1467.5
1787.48	1479.5
1785.75	1459
1784.03	1485.5
1782.3	1485.5
1780.57	1464
1778.84	1463.5
1777.11	1455
1775.38	1435
1773.66	1437
1771.93	1401
1770.19	1447.5
1768.46	1409
1766.73	1444
1765	1434.5
1763.27	1446
1761.54	1438
1759.8	1448
1758.07	1450.5
1756.34	1442.5
1754.6	1422
1752.87	1433
1751.13	1443.5
1749.4	1431.5
1747.66	1446
1745.92	1477
1744.19	1466
1742.45	1438
1740.71	1410
1738.97	1415
1737.23	1416
1735.49	1394
1733.75	1390
1732.01	1379
1730.27	1352
1728.53	1321
1726.79	1356
1725.05	1369.5
1723.31	1338
1721.57	1312.5
1719.82	1338.5
1718.08	1321.5
1716.34	1291
1714.59	1312.5
1712.85	1312
1711.1	1274.5
1709.36	1291.5
1707.61	1282.5
1705.86	1266.5
1704.12	1245
1702.37	1294
1700.62	1249
1698.87	1244
1697.12	1243.5
1695.37	1216
1693.62	1202
1691.87	1222
1690.12	1222.5
1688.37	1210.5
1686.62	1208
1684.87	1236.5
1683.12	1218
1681.36	1209
1679.61	1224.5
1677.86	1205
1676.1	1225.5
1674.35	1220
1672.59	1208.5
1670.84	1205
1669.08	1229
1667.33	1246
1665.57	1248
1663.81	1317
1662.06	1341
1660.3	1356
1658.54	1371.5
1656.78	1376.5
1655.02	1338
1653.26	1287.5
1651.5	1280
1649.74	1253
1647.98	1221
1646.22	1198
1644.46	1157.5
1642.7	1163
1640.93	1156.5
1639.17	1140.5
1637.41	1125
1635.64	1125.5
1633.88	1087.5
1632.11	1122
1630.35	1083.5
1628.58	1107.5
1626.81	1079.5
1625.05	1096.5
1623.28	1081
1621.51	1082
1619.75	1029
1617.98	1042.5
1616.21	1040
1614.44	1056.5
1612.67	1039
1610.9	1043
1609.13	1027.5
1607.36	1048
1605.58	1033
1603.81	1036
1602.04	1022.5
1600.27	1031
1598.49	1032
1596.72	1030.5
1594.95	1009
1593.17	1012
1591.4	1005
1589.62	1001.5
1587.84	1007
1586.07	1011.5
1584.29	986
1582.51	1003.5
1580.74	990.5
1578.96	995
1577.18	973.5
1575.4	971
1573.62	958
1571.84	972.5
1570.06	963
1568.28	974
1566.5	945.5
1564.72	966
1562.93	948
1561.15	971
1559.37	957.5
1557.58	937
1555.8	938
1554.02	931
1552.23	917.5
1550.45	900.5
1548.66	925.5
1546.87	943
1545.09	927
1543.3	930
1541.51	906.5
1539.72	908
1537.94	915.5
1536.15	917
1534.36	899
1532.57	880
1530.78	889
1528.99	849
1527.2	893.5
1525.4	868
1523.61	852
1521.82	866.5
1520.03	875
1518.23	861
1516.44	846.5
1514.65	873
1512.85	882.5
1511.06	843
1509.26	835
1507.46	852
1505.67	869.5
1503.87	875.5
1502.07	853.5
1500.28	872
1498.48	879.5
1496.68	867.5
1494.88	883
1493.08	861
1491.28	876
1489.48	850.5
1487.68	877
1485.88	890.5
1484.08	893
1482.27	903
1480.47	901.5
1478.67	929.5
1476.86	928
1475.06	948.5
1473.25	980.5
1471.45	959
1469.64	982
1467.84	1003
1466.03	1046
1464.23	1058.5
1462.42	1083.5
1460.61	1143.5
1458.8	1172
1456.99	1152.5
1455.18	1157
1453.37	1194
1451.56	1198
1449.75	1207.5
1447.94	1224
1446.13	1249.5
1444.32	1269
1442.51	1305.5
1440.7	1302.5
1438.88	1230
1437.07	1221.5
1435.26	1158.5
1433.44	1096
1431.63	1057.5
1429.81	977.5
1427.99	929.5
1426.18	905
1424.36	911.5
1422.54	903
1420.73	874.5
1418.91	847.5
1417.09	839
1415.27	843.5
1413.45	795
1411.63	789.5
1409.81	771
1407.99	772
1406.17	778
1404.35	766
1402.53	762.5
1400.7	754
1398.88	761
1397.06	753.5
1395.23	762
1393.41	765.5
1391.58	747
1389.76	748
1387.93	754
1386.11	717
1384.28	719.5
1382.45	729
1380.62	725
1378.8	711.5
1376.97	729
1375.14	750.5
1373.31	710
1371.48	732
1369.65	748.5
1367.82	745.5
1365.99	720.5
1364.16	723
1362.32	720.5
1360.49	716
1358.66	698.5
1356.82	708.5
1354.99	717
1353.16	722.5
1351.32	733
1349.48	714
1347.65	713
1345.81	718
1343.98	698
1342.14	703.5
1340.3	704.5
1338.46	703.5
1336.62	708.5
1334.79	724.5
1332.95	732.5
1331.11	737
1329.27	746.5
1327.42	758
1325.58	792
1323.74	793
1321.9	772
1320.06	805.5
1318.21	809.5
1316.37	842.5
1314.53	880.5
1312.68	892.5
1310.84	909
1308.99	946
1307.15	1009.5
1305.3	988
1303.45	1006.5
1301.61	998
1299.76	965
1297.91	963.5
1296.06	922
1294.21	901
1292.36	870.5
1290.51	822.5
1288.66	846
1286.81	827.5
1284.96	831.5
1283.11	806
1281.26	812
1279.4	812.5
1277.55	799
1275.7	805.5
1273.84	815
1271.99	805
1270.13	804.5
1268.28	816.5
1266.42	817
1264.56	802.5
1262.71	804
1260.85	782
1258.99	775.5
1257.13	767.5
1255.27	752
1253.41	714
1251.56	734.5
1249.7	699
1247.83	693
1245.97	682
1244.11	669.5
1242.25	656.5
1240.39	667
1238.52	662
1236.66	650
1234.8	632.5
1232.93	641
1231.07	637
1229.2	640
1227.34	629.5
1225.47	633.5
1223.6	627.5
1221.74	615
1219.87	623
1218	601
1216.13	603
1214.26	593
1212.39	594.5
1210.53	596.5
1208.65	580
1206.78	598
1204.91	607.5
1203.04	607
1201.17	587.5
1199.3	594
1197.42	582
1195.55	581.5
1193.68	568
1191.8	558
1189.93	586.5
1188.05	583
1186.17	568
1184.3	597
1182.42	566
1180.54	581
1178.67	581.5
1176.79	585
1174.91	567
1173.03	568
1171.15	568
1169.27	567
1167.39	564
1165.51	579
1163.63	582.5
1161.75	566
1159.86	579
1157.98	581
1156.1	571
1154.21	567
1152.33	574
1150.44	564
1148.56	568
1146.67	578
1144.79	573.5
1142.9	580.5
1141.01	572.5
1139.12	613
1137.24	601
1135.35	613.5
1133.46	614.5
1131.57	653
1129.68	630.5
1127.79	630.5
1125.9	648
1124.01	632
1122.12	656
1120.22	668
1118.33	637.5
1116.44	666
1114.54	639.5
1112.65	622.5
1110.75	614.5
1108.86	607
1106.96	658.5
1105.07	649
1103.17	640
1101.27	682.5
1099.38	680
1097.48	693
1095.58	716
1093.68	719.5
1091.78	744.5
1089.88	740.5
1087.98	761
1086.08	775
1084.18	745
1082.28	749
1080.38	759.5
1078.47	753.5
1076.57	734.5
1074.67	760
1072.76	735.5
1070.86	752
1068.95	740.5
1067.05	760.5
1065.14	763
1063.24	724
1061.33	714
1059.42	702
1057.51	686
1055.6	663
1053.7	664
1051.79	650.5
1049.88	650
1047.97	662
1046.06	643
1044.14	660.5
1042.23	636.5
1040.32	650.5
1038.41	625.5
1036.5	616.5
1034.58	625.5
1032.67	629
1030.75	615.5
1028.84	647.5
1026.92	634.5
1025.01	625
1023.09	622.5
1021.17	620
1019.26	633.5
1017.34	640
1015.42	625
1013.5	630.5
1011.58	624.5
1009.66	621.5
1007.74	625
1005.82	632
1003.9	616
1001.98	625.5
1000.06	611.5
998.134	637.5
996.212	629
994.288	642.5
992.364	636
990.44	684
988.515	658
986.589	684
984.663	693.5
982.737	712
980.81	734
978.883	743.5
976.955	761
975.027	790
973.098	763
971.169	761.5
969.239	753
967.308	771.5
965.378	758
963.447	771.5
961.516	749.5
959.583	767
957.65	775.5
955.718	745.5
953.784	777
951.85	778
949.916	773
947.981	779
946.045	811
944.109	811
942.173	816
940.236	835
938.298	823
936.36	806
934.422	793.5
932.484	753
930.544	752.5
928.604	714.5
926.664	704
924.724	697
922.782	704.5
920.84	691.5
918.898	691
916.955	690
915.012	703
913.068	672
911.124	689
909.18	661.5
907.235	683.5
905.289	681.5
903.343	680.5
901.397	674
899.45	727.5
897.502	707
895.554	732.5
893.605	741
891.657	734.5
889.707	748
887.758	721.5
885.807	747
883.856	739.5
881.905	737
879.953	744
878.001	725.5
876.048	775
874.094	761
872.14	748
870.186	755.5
868.232	772
866.276	737
864.321	748.5
862.365	724.5
860.408	742
858.451	729
856.493	748
854.535	739
852.576	707.5
850.617	760.5
848.658	744
846.698	745.5
844.737	751
842.776	707.5
840.814	734
838.852	701.5
836.89	716.5
834.927	678.5
832.963	696
830.999	660.5
829.035	663.5
827.07	658
825.105	668
823.139	651.5
821.172	639.5
819.206	632
817.238	622
815.27	624.5
813.301	607.5
811.333	609.5
809.363	587
807.394	594.5
805.424	579
803.453	578
801.482	588
799.509	554
797.538	570
795.565	547.5
793.592	542
791.618	549
789.643	568
787.669	550.5
785.693	550.5
783.718	539.5
781.742	554
779.765	543.5
777.788	556
775.811	545.5
773.832	547.5
771.853	550.5
769.875	537.5
767.895	530
765.915	549
763.934	548
761.953	539.5
759.972	560.5
757.99	550.5
756.007	552.5
754.024	554
752.041	538.5
750.056	534
748.072	528.5
746.087	539
744.102	547.5
742.116	549
740.13	555
738.143	545
736.155	553.5
734.167	567
732.179	566
730.19	572
728.2	560
726.21	568
724.22	547
722.229	552
720.237	545
718.246	567.5
716.253	559.5
714.26	563.5
712.267	577.5
710.273	573.5
708.279	540
706.284	530.5
704.289	542.5
702.293	537.5
700.296	533.5
698.3	537
696.303	544
694.305	550.5
692.307	554.5
690.307	549.5
688.308	550
686.309	531
684.308	560.5
682.308	536
680.306	562
678.304	538.5
676.302	560
674.3	553.5
672.296	562
670.293	555
668.289	568.5
666.284	577
664.278	570.5
662.273	574.5
660.266	569
658.26	577
656.252	564
654.244	548
652.237	556
650.227	556.5
648.218	586
646.209	585
644.198	581.5
642.188	582
640.177	581.5
638.165	588
636.153	584
634.14	585
632.128	596
630.113	587
628.099	611.5
626.085	616.5
624.07	596
622.054	596.5
620.038	599
618.021	594
616.004	594
613.986	608.5
611.968	616
609.949	600.5
607.93	617
605.911	607
603.891	616.5
601.87	620
599.848	628
597.827	612.5
595.805	591.5
593.782	625.5
591.759	602.5
589.735	594
587.711	588.5
585.687	594
583.661	598.5
581.636	600.5
579.609	614.5
577.583	634
575.555	621.5
573.527	610
571.5	622
569.471	620.5
567.441	612
565.412	617.5
563.382	617.5
561.351	637
559.32	625
557.289	642
555.257	679.5
553.223	674.5
551.19	689
549.157	698.5
547.122	711.5
545.088	752.5
543.053	763
541.017	782.5
538.981	841.5
536.943	937
534.907	1079.5
532.869	1322
530.831	1741.5
528.792	2398.5
526.752	3509
524.713	4823
522.673	5622
520.632	5239
518.591	4283
516.549	3114
514.507	2222
512.464	1614.5
510.42	1208
508.377	1029
506.332	903.5
504.288	834
502.242	797
500.196	788
498.15	767.5
496.104	751
494.056	736
492.008	720.5
489.96	713
487.911	708
485.862	723.5
483.812	734
481.761	713
479.71	715
477.659	715
475.607	708
473.555	703.5
471.502	690
469.448	689.5
467.395	687
465.34	695
463.285	689.5
461.23	690.5
459.174	689.5
457.118	716.5
455.061	714.5
453.003	702.5
450.945	743.5
448.887	704
446.828	715.5
444.768	714.5
442.708	726
440.647	742.5
438.587	757
436.525	773
434.463	761.5
432.4	766
430.337	779.5
428.274	766.5
426.21	757.5
424.145	763
422.079	755
420.014	757
417.948	761
415.882	782.5
413.814	750
411.746	770.5
409.679	788
407.609	801.5
405.54	797.5
403.47	786.5
401.401	797.5
399.329	804.5
397.258	773
395.187	770.5
393.114	792
391.041	785
388.968	812
386.895	806
384.82	802
382.745	809.5
380.67	822
378.594	808.5
376.517	825.5
374.44	826.5
372.363	814.5
370.286	821.5
368.207	851
366.128	868
364.049	837.5
361.969	837.5
359.888	872
357.807	850
355.725	848
353.643	859.5
351.561	874
349.477	880.5
347.394	898.5
345.31	874.5
343.226	873
341.141	895.5
339.055	908.5
336.968	902
334.882	939.5
332.795	933.5
330.707	939
328.618	923
326.53	939
324.44	963.5
322.351	969.5
320.26	984.5
318.17	989
316.078	1012
313.987	1026
311.895	1076
309.802	1109
307.708	1127
305.614	1130.5
303.52	1108.5
301.425	1133
299.329	1126
297.233	1102.5
295.137	1100.5
293.039	1086.5
290.942	1083
288.844	1057.5
286.745	1068
284.647	1075.5
282.546	1081
280.446	1069.5
278.346	1064.5
276.245	1053.5
274.143	1059.5
272.041	1093
269.939	1124.5
267.835	1113.5
265.731	1080.5
263.627	1127.5
261.522	1147.5
259.417	1151.5
257.311	1132.5
255.204	1139.5
253.098	1132.5
250.99	1159
248.882	1166
246.774	1194.5
244.664	1203.5
242.555	1188
240.445	1216.5
238.334	1217
236.223	1240.5
234.112	1245
232	1244
229.888	1262
227.775	1270.5
225.661	1281.5
223.546	1270.5
221.431	1320
219.316	1311.5
217.201	1353
215.084	1333.5
212.967	1335.5
210.85	1319.5
208.732	1352.5
206.614	1370.5
204.495	1366.5
202.375	1336
200.256	1379
198.135	1363
196.014	1413
193.893	1391.5
191.771	1419.5
189.648	1417.5
187.525	1429
185.401	1418.5
183.277	1430
181.152	1450
179.027	1481
176.901	1466
174.775	1498.5
172.648	1490
170.521	1548
168.393	1552.5
166.265	1562
164.136	1609
162.007	1591
159.876	1645.5
157.746	1652.5
155.615	1693.5
153.483	1714
151.351	1724.5
149.219	1773.5
147.086	1811.5
144.952	1863
142.818	1881
140.684	1979.5
138.548	2002.5
136.413	1993.5
134.276	2046
132.139	2123
130.002	2183
127.864	2207
125.725	2288
123.587	2321
121.447	2402.5
119.307	2487
117.166	2523.5
115.026	2610
112.885	2679
110.743	2700
108.6	2763
106.456	2698
104.313	2708.5
102.169	2585.5
100.023	2471
97.8789	2296.5
95.7328	2033.5
93.5869	1764.5
91.4392	1494
89.2919	1194
87.1447	945.5
84.9959	714.5
