3528.51	324.25
3527.23	350.75
3525.95	365.5
3524.67	363
3523.39	379.75
3522.1	384
3520.82	383
3519.54	389
3518.26	380
3516.97	410.5
3515.69	381.25
3514.4	395.25
3513.12	404.75
3511.84	379
3510.55	427
3509.26	394
3507.98	396.75
3506.69	406.5
3505.41	396.25
3504.12	439
3502.83	417.5
3501.54	402.5
3500.26	428.5
3498.97	413.75
3497.68	432.25
3496.39	451
3495.1	465.25
3493.81	460.5
3492.52	448
3491.23	472
3489.94	475.5
3488.65	472.5
3487.36	481.75
3486.07	514
3484.78	500
3483.49	498.25
3482.19	498.5
3480.9	532.25
3479.61	493.5
3478.31	517.25
3477.02	525.5
3475.73	521.5
3474.43	552.25
3473.14	557
3471.84	572
3470.54	567.5
3469.25	549.25
3467.95	542.75
3466.66	533.5
3465.36	554.75
3464.06	567.75
3462.76	574
3461.46	592
3460.17	559.5
3458.87	589.25
3457.57	609.25
3456.27	614.25
3454.97	588.5
3453.67	630.25
3452.37	626.75
3451.07	658.5
3449.77	613.5
3448.47	638.25
3447.16	679.25
3445.86	659
3444.56	645
3443.26	685.5
3441.95	685.75
3440.65	683.75
3439.35	694
3438.04	702.75
3436.74	747.5
3435.43	718.5
3434.13	724.25
3432.82	772.75
3431.52	761
3430.21	795.25
3428.9	769.5
3427.6	791
3426.29	805.75
3424.98	807
3423.67	828.5
3422.36	856
3421.06	888.5
3419.75	837
3418.44	870.25
3417.13	917.5
3415.82	917.25
3414.51	918.25
3413.2	936.25
3411.88	927.5
3410.57	892
3409.26	971.75
3407.95	961
3406.64	933.75
3405.32	954
3404.01	974
3402.7	975.5
3401.38	997.75
3400.07	985
3398.75	1022.5
3397.44	1036
3396.12	1025.75
3394.81	1000.75
3393.49	1028.75
3392.18	1067.75
3390.86	1039.25
3389.54	1047.75
3388.23	1067
3386.91	1100.5
3385.59	1105.75
3384.27	1104.5
3382.95	1107.25
3381.63	1122
3380.31	1141
3378.99	1116.75
3377.67	1159.25
3376.35	1145.25
3375.03	1138
3373.71	1150
3372.39	1195.25
3371.07	1165.5
3369.75	1206.75
3368.42	1212
3367.1	1216.25
3365.78	1235.75
3364.45	1223.25
3363.13	1261
3361.81	1267
3360.48	1264.75
3359.16	1310.75
3357.83	1313
3356.51	1289.25
3355.18	1293.75
3353.85	1282.25
3352.53	1316.5
3351.2	1313.5
3349.87	1290.5
3348.54	1323.75
3347.22	1322
3345.89	1308.75
3344.56	1343.5
3343.23	1352.5
3341.9	1349.75
3340.57	1348.5
3339.24	1309.5
3337.91	1367.25
3336.58	1362.5
3335.25	1392.75
3333.92	1399.5
3332.58	1392.75
3331.25	1388.5
3329.92	1428.5
3328.59	1408
3327.25	1395.25
3325.92	1407
3324.58	1457
3323.25	1430.5
3321.92	1464
3320.58	1432
3319.25	1458.75
3317.91	1494.75
3316.57	1484.25
3315.24	1481.75
3313.9	1471.25
3312.56	1535.25
3311.23	1518.5
3309.89	1490.5
3308.55	1520.5
3307.21	1534.5
3305.87	1525.5
3304.53	1543.5
3303.19	1521
3301.85	1551.5
3300.51	1563.5
3299.17	1543.75
3297.83	1579.5
3296.49	1568.75
3295.15	1569
3293.81	1580.25
3292.46	1621.75
3291.12	1602.5
3289.78	1611.25
3288.43	1593.25
3287.09	1632.75
3285.75	1603
3284.4	1631.75
3283.06	1663.75
3281.71	1658.5
3280.37	1657.75
3279.02	1686
3277.67	1725.25
3276.33	1696
3274.98	1684.75
3273.63	1714
3272.28	1753.5
3270.94	1740.25
3269.59	1736
3268.24	1779.25
3266.89	1796.75
3265.54	1830.5
3264.19	1826.5
3262.84	1892.25
3261.49	1931
3260.14	1926.5
3258.79	2000
3257.44	2044.75
3256.08	2041.5
3254.73	2071
3253.38	2139.75
3252.03	2231
3250.67	2230
3249.32	2262.5
3247.96	2317
3246.61	2403.25
3245.26	2404.75
3243.9	2539.75
3242.54	2554.5
3241.19	2659.75
3239.83	2730
3238.48	2792.75
3237.12	2830
3235.76	2931.5
3234.41	2958.75
3233.05	3062.5
3231.69	3126.25
3230.33	3183.25
3228.97	3204
3227.61	3239.75
3226.25	3341
3224.89	3389.5
3223.53	3409
3222.17	3480
3220.81	3519.5
3219.45	3565.5
3218.09	3550.25
3216.72	3582.5
3215.36	3665.5
3214	3677.25
3212.63	3716.75
3211.27	3740.75
3209.91	3761.25
3208.54	3817.75
3207.18	3799
3205.81	3820.75
3204.45	3821.25
3203.08	3877.25
3201.71	3890
3200.35	3926.25
3198.98	3933
3197.61	3943.25
3196.25	4001.75
3194.88	3988.25
3193.51	3986.75
3192.14	4040.5
3190.77	4054
3189.4	4092.75
3188.03	4108.75
3186.66	4080.75
3185.29	4091
3183.92	4186.5
3182.55	4163
3181.18	4238.75
3179.81	4222.5
3178.44	4293.25
3177.06	4275.5
3175.69	4284.25
3174.32	4358.75
3172.94	4367.75
3171.57	4395
3170.2	4439.75
3168.82	4477.25
3167.45	4507.75
3166.07	4511
3164.69	4572.75
3163.32	4575
3161.94	4624.5
3160.56	4656.5
3159.19	4694.25
3157.81	4732.75
3156.43	4807.5
3155.05	4802.75
3153.67	4798
3152.3	4872.5
3150.92	4917.25
3149.54	4922.75
3148.16	4951.5
3146.78	5003.75
3145.4	5080.25
3144.01	5099.75
3142.63	5148.5
3141.25	5130.75
3139.87	5160
3138.49	5180.5
3137.1	5236.5
3135.72	5261.5
3134.34	5303
3132.95	5345
3131.57	5431.25
3130.18	5397.75
3128.8	5428
3127.41	5462
3126.03	5547
3124.64	5555
3123.25	5545.5
3121.87	5615.25
3120.48	5628.5
3119.09	5669.5
3117.7	5671.25
3116.32	5718
3114.93	5692.5
3113.54	5746.5
3112.15	5822.25
3110.76	5815.75
3109.37	5841.25
3107.98	5852.75
3106.59	5852.5
3105.2	5869.5
3103.8	5893
3102.41	5917.5
3101.02	5985
3099.63	6021.25
3098.23	6016.25
3096.84	6034.5
3095.45	6061.5
3094.05	6119
3092.66	6167.75
3091.26	6106.75
3089.87	6141.5
3088.47	6145.75
3087.08	6144.25
3085.68	6198.25
3084.28	6261.5
3082.89	6279.5
3081.49	6242
3080.09	6275.25
3078.69	6269.5
3077.3	6268.5
3075.9	6315.75
3074.5	6340
3073.1	6317.75
3071.7	6359.25
3070.3	6350.75
3068.9	6462.25
3067.5	6431.75
3066.09	6408.75
3064.69	6409.75
3063.29	6475.25
3061.89	6481.5
3060.48	6504.75
3059.08	6498.25
3057.68	6529.25
3056.27	6549.5
3054.87	6637.75
3053.46	6637.5
3052.06	6674.25
3050.65	6648.25
3049.25	6647
3047.84	6717.5
3046.44	6776.5
3045.03	6732
3043.62	6736.5
3042.21	6799.5
3040.81	6868
3039.4	6826.25
3037.99	6879
3036.58	6913.5
3035.17	6921
3033.76	6855.25
3032.35	6955
3030.94	6936.5
3029.53	6946
3028.12	6983
3026.71	6951.75
3025.29	7014
3023.88	7011.75
3022.47	7026.5
3021.06	6996.25
3019.64	7032.5
3018.23	6970.25
3016.82	7008
3015.4	7079
3013.99	7013.25
3012.57	7082.25
3011.15	7146.25
3009.74	7096.75
3008.32	7200.5
3006.91	7162.25
3005.49	7215.25
3004.07	7188.5
3002.65	7133.5
3001.24	7200.5
2999.82	7220.75
2998.4	7285.75
2996.98	7334.25
2995.56	7330.5
2994.14	7348.25
2992.72	7450
2991.3	7479.5
2989.88	7533.75
2988.46	7504
2987.03	7514.25
2985.61	7597.25
2984.19	7648.25
2982.77	7699.5
2981.34	7715.75
2979.92	7826.75
2978.49	7812.5
2977.07	7886
2975.65	7867.25
2974.22	7908.5
2972.79	7967.75
2971.37	7899.75
2969.94	8031.25
2968.52	8063.25
2967.09	8111.5
2965.66	8096
2964.23	8069.75
2962.81	8143
2961.38	8147
2959.95	8218
2958.52	8193.75
2957.09	8223.25
2955.66	8203.5
2954.23	8197.75
2952.8	8244
2951.37	8245.25
2949.94	8199.25
2948.5	8208.25
2947.07	8268.75
2945.64	8247.75
2944.21	8259
2942.77	8299.5
2941.34	8288.25
2939.91	8345
2938.47	8342.5
2937.04	8390.75
2935.6	8356.25
2934.17	8478.75
2932.73	8465
2931.29	8484
2929.86	8551.5
2928.42	8475.25
2926.98	8467.25
2925.55	8597.25
2924.11	8597
2922.67	8576.75
2921.23	8593.5
2919.79	8572.5
2918.35	8648.75
2916.91	8586.5
2915.47	8635.25
2914.03	8653.75
2912.59	8580.75
2911.15	8668.75
2909.71	8668.25
2908.26	8672.25
2906.82	8672.25
2905.38	8765
2903.94	8812
2902.49	8794.5
2901.05	8798.25
2899.6	8776.25
2898.16	8779.75
2896.71	8811.75
2895.27	8751.75
2893.82	8844.75
2892.38	8750.25
2890.93	8775.25
2889.48	8799.5
2888.03	8916
2886.59	8870.25
2885.14	8825
2883.69	8897.5
2882.24	8932
2880.79	8878.5
2879.34	8894.25
2877.89	8883.5
2876.44	8970.75
2874.99	8970.25
2873.54	8949.5
2872.09	8884
2870.64	8909.75
2869.18	8985.5
2867.73	8996.5
2866.28	8990.5
2864.83	9027
2863.37	8987.75
2861.92	9030.75
2860.46	9083.25
2859.01	9000.75
2857.55	9029.25
2856.1	9013.5
2854.64	8997.75
2853.19	9039.5
2851.73	9055.75
2850.27	9005.75
2848.81	9044
2847.36	9029
2845.9	9055.25
2844.44	9058
2842.98	9075.5
2841.52	9018.5
2840.06	9050.75
2838.6	8959
2837.14	9012
2835.68	9042
2834.22	9010
2832.76	8992.5
2831.3	8975
2829.83	8919.5
2828.37	8999.75
2826.91	8947
2825.44	9032.75
2823.98	8910.75
2822.52	8939.5
2821.05	8983.75
2819.59	8904.25
2818.12	8885.75
2816.66	8943.5
2815.19	8879.25
2813.72	8933.25
2812.26	8813.25
2810.79	8904
2809.32	8940.75
2807.85	8878.5
2806.38	8831.5
2804.92	8841.75
2803.45	8963.5
2801.98	8880
2800.51	8907.75
2799.04	8849.75
2797.57	8821.75
2796.1	8880
2794.62	8852
2793.15	8877.25
2791.68	8817.75
2790.21	8820
2788.73	8871
2787.26	8847.75
2785.79	8825.25
2784.31	8802.5
2782.84	8839
2781.36	8871
2779.89	8799.75
2778.41	8858.25
2776.94	8860.5
2775.46	8833.25
2773.99	8916.5
2772.51	8942.75
2771.03	8963.75
2769.55	8932.5
2768.07	8999.5
2766.6	8979
2765.12	8870.5
2763.64	8921.75
2762.16	8986.25
2760.68	8921.25
2759.2	8926.75
2757.72	8792.5
2756.24	8862.5
2754.75	8852.5
2753.27	8898.5
2751.79	8867.5
2750.31	8887
2748.82	8837.5
2747.34	8938.5
2745.86	8851.75
2744.37	8865.5
2742.89	8841
2741.4	8897.5
2739.92	8833
2738.43	8900.25
2736.94	8823.25
2735.46	8779
2733.97	8798
2732.48	8873
2731	8862.5
2729.51	8832.75
2728.02	8824
2726.53	8796.75
2725.04	8786.5
2723.55	8799.25
2722.06	8776.25
2720.57	8816.25
2719.08	8761
2717.59	8796.5
2716.1	8811.5
2714.61	8847
2713.11	8821.25
2711.62	8780.75
2710.13	8768.5
2708.64	8750.75
2707.14	8678.25
2705.65	8743.75
2704.15	8710
2702.66	8690
2701.16	8641.25
2699.67	8697.25
2698.17	8628.75
2696.67	8581.25
2695.18	8578.75
2693.68	8582.25
2692.18	8639.25
2690.69	8571.75
2689.19	8449.75
2687.69	8581
2686.19	8558.25
2684.69	8517.5
2683.19	8520
2681.69	8500.25
2680.19	8490.75
2678.69	8489
2677.19	8426.5
2675.68	8490.75
2674.18	8471
2672.68	8430.75
2671.18	8394.5
2669.67	8399.75
2668.17	8402.5
2666.66	8438
2665.16	8427.75
2663.66	8402.25
2662.15	8338.25
2660.64	8386.25
2659.14	8350.75
2657.63	8361.75
2656.13	8342
2654.62	8264
2653.11	8274.5
2651.6	8311.5
2650.09	8268
2648.58	8265.5
2647.08	8260
2645.57	8245.5
2644.06	8223.25
2642.55	8234.25
2641.04	8165.75
2639.52	8148
2638.01	8154.75
2636.5	8072.75
2634.99	8102
2633.48	8006
2631.96	8030
2630.45	8045
2628.94	7973.25
2627.42	8036.75
2625.91	8026.25
2624.39	7992.5
2622.88	8017
2621.36	8013.75
2619.85	8002.25
2618.33	7992.5
2616.81	7991
2615.3	7895
2613.78	7922.25
2612.26	7883
2610.74	7901
2609.22	7933.25
2607.7	7901.75
2606.18	7855.5
2604.66	7804.75
2603.14	7791.5
2601.62	7730.25
2600.1	7748.75
2598.58	7675
2597.06	7717.75
2595.54	7718
2594.01	7716.25
2592.49	7692.5
2590.97	7652.5
2589.44	7718.5
2587.92	7731
2586.39	7660.25
2584.87	7623
2583.34	7652.5
2581.82	7668.5
2580.29	7705
2578.76	7611.5
2577.24	7629.5
2575.71	7668
2574.18	7558.25
2572.65	7603.25
2571.13	7580.75
2569.6	7607.25
2568.07	7558.25
2566.54	7564.75
2565.01	7559
2563.48	7524.5
2561.95	7513.75
2560.42	7577
2558.88	7499.25
2557.35	7481.25
2555.82	7487.5
2554.29	7397
2552.75	7371.75
2551.22	7348
2549.69	7360
2548.15	7255.5
2546.62	7337
2545.08	7309.75
2543.55	7305.25
2542.01	7231.5
2540.47	7245
2538.94	7236.5
2537.4	7263.75
2535.86	7188.25
2534.33	7232.5
2532.79	7190
2531.25	7083.5
2529.71	7147.25
2528.17	7153.25
2526.63	7079.25
2525.09	7127.5
2523.55	7087
2522.01	7073.25
2520.47	7082.5
2518.92	7008.75
2517.38	6930.25
2515.84	6955.25
2514.3	6953.5
2512.75	6868.25
2511.21	6925.5
2509.67	6875.25
2508.12	6796
2506.58	6823.75
2505.03	6793
2503.49	6785.5
2501.94	6647.25
2500.39	6746.5
2498.85	6757.5
2497.3	6662.75
2495.75	6615.75
2494.2	6550.75
2492.65	6644.75
2491.11	6612.5
2489.56	6561.5
2488.01	6513.25
2486.46	6560.5
2484.91	6512.25
2483.36	6498.25
2481.8	6456
2480.25	6421
2478.7	6472
2477.15	6504.5
2475.6	6408
2474.04	6393.25
2472.49	6346.5
2470.93	6293
2469.38	6240.75
2467.83	6308
2466.27	6189
2464.71	6169.5
2463.16	6172.75
2461.6	6142.5
2460.05	6147.75
2458.49	6152.25
2456.93	6107.25
2455.37	6135.5
2453.81	6078.5
2452.26	5989.5
2450.7	6046
2449.14	5974
2447.58	5916
2446.02	5899.5
2444.46	5883.25
2442.9	5914.25
2441.33	5925.25
2439.77	5864.75
2438.21	5886.5
2436.65	5838.5
2435.08	5822.5
2433.52	5841
2431.96	5753.5
2430.39	5766
2428.83	5771.25
2427.26	5763
2425.7	5791.25
2424.13	5712.25
2422.56	5732.5
2421	5754
2419.43	5685
2417.86	5651.5
2416.3	5655.25
2414.73	5639.25
2413.16	5694.75
2411.59	5617.75
2410.02	5628.25
2408.45	5608.25
2406.88	5642.25
2405.31	5590.25
2403.74	5600
2402.17	5635.5
2400.6	5584
2399.02	5613.75
2397.45	5553
2395.88	5595.75
2394.3	5505
2392.73	5569.25
2391.16	5562
2389.58	5557.5
2388.01	5555
2386.43	5506.25
2384.86	5532.5
2383.28	5567.75
2381.7	5523.75
2380.13	5509.25
2378.55	5538
2376.97	5552.25
2375.39	5447.5
2373.81	5537
2372.23	5403.75
2370.65	5395.25
2369.07	5436
2367.49	5343.25
2365.91	5398
2364.33	5339.25
2362.75	5381.5
2361.17	5338.75
2359.59	5333.75
2358.01	5288
2356.42	5297.75
2354.84	5276.5
2353.25	5244
2351.67	5252.75
2350.09	5283.75
2348.5	5289.5
2346.92	5232
2345.33	5221.25
2343.74	5237
2342.16	5225.75
2340.57	5191.75
2338.98	5185.5
2337.39	5192.75
2335.81	5197.5
2334.22	5189.25
2332.63	5184.75
2331.04	5152
2329.45	5101.75
2327.86	5089.25
2326.27	5115.5
2324.68	5113.5
2323.09	5060.75
2321.49	5047.5
2319.9	5021.5
2318.31	5012.75
2316.72	4999.5
2315.12	4977.5
2313.53	4921.5
2311.93	4825
2310.34	4917.75
2308.74	4879.25
2307.15	4843.5
2305.55	4799.5
2303.96	4813.25
2302.36	4810.75
2300.76	4776
2299.17	4744.25
2297.57	4751.5
2295.97	4755.75
2294.37	4783.5
2292.77	4757.25
2291.17	4694.5
2289.57	4719.25
2287.97	4706
2286.37	4619.75
2284.77	4682.5
2283.17	4686.25
2281.57	4695.5
2279.96	4634.75
2278.36	4654
2276.76	4691.5
2275.15	4647
2273.55	4604.25
2271.95	4563.5
2270.34	4558
2268.74	4527
2267.13	4471.5
2265.52	4518.75
2263.92	4524.75
2262.31	4453.75
2260.7	4422
2259.1	4490.75
2257.49	4433.5
2255.88	4407.75
2254.27	4515.25
2252.66	4433.25
2251.05	4438.25
2249.44	4426
2247.83	4408.75
2246.22	4388.75
2244.61	4368
2243	4370.75
2241.39	4368.25
2239.77	4317
2238.16	4321.5
2236.55	4321.5
2234.93	4347.5
2233.32	4308.5
2231.7	4227.25
2230.09	4253.75
2228.47	4257
2226.86	4220
2225.24	4242.25
2223.63	4211.5
2222.01	4191
2220.39	4147
2218.77	4144.5
2217.16	4142.5
2215.54	4077
2213.92	4050.75
2212.3	4088.25
2210.68	4063
2209.06	4030.5
2207.44	4035
2205.82	4044.75
2204.19	4059.5
2202.57	4001.25
2200.95	4033.5
2199.33	3961.75
2197.7	3992
2196.08	3906.25
2194.46	3950.25
2192.83	3923.25
2191.21	3927.5
2189.58	3892
2187.96	3923.75
2186.33	3910.25
2184.7	3927.75
2183.08	3885
2181.45	3840.5
2179.82	3864.5
2178.19	3805.25
2176.57	3773.5
2174.94	3791.75
2173.31	3791.5
2171.68	3813
2170.05	3792.75
2168.42	3763
2166.79	3759.25
2165.16	3686.25
2163.52	3704.75
2161.89	3693
2160.26	3688
2158.63	3645
2156.99	3661.75
2155.36	3625
2153.73	3635.25
2152.09	3636.25
2150.46	3546
2148.82	3591.75
2147.18	3527.75
2145.55	3526.25
2143.91	3581.5
2142.27	3501
2140.64	3489
2139	3526.25
2137.36	3492.75
2135.72	3467
2134.08	3453.5
2132.44	3442.25
2130.8	3385.25
2129.16	3369.5
2127.52	3328
2125.88	3359.5
2124.24	3276.75
2122.6	3293.75
2120.95	3285.5
2119.31	3299
2117.67	3266.5
2116.02	3263.75
2114.38	3255.75
2112.74	3206.75
2111.09	3233.5
2109.45	3216.5
2107.8	3193.25
2106.15	3208.5
2104.51	3194
2102.86	3119
2101.21	3146.75
2099.56	3199.5
2097.92	3161.25
2096.27	3161.75
2094.62	3136
2092.97	3137.25
2091.32	3093
2089.67	3073
2088.02	3137
2086.37	3123.25
2084.72	3105.5
2083.06	3103.75
2081.41	3076.25
2079.76	3046.75
2078.1	3039
2076.45	3079
2074.8	3030.5
2073.14	3014.5
2071.49	2993.25
2069.83	2985
2068.18	3010.75
2066.52	2953.5
2064.86	2934.5
2063.21	3011.5
2061.55	3010.75
2059.89	2990.25
2058.23	2989.5
2056.57	2902.5
2054.92	2957
2053.26	2927.5
2051.6	2903
2049.94	2916.25
2048.27	2901.5
2046.61	2879.5
2044.95	2841.5
2043.29	2851.75
2041.63	2817.5
2039.97	2826.5
2038.3	2796.5
2036.64	2849
2034.97	2842.75
2033.31	2780.25
2031.64	2767.5
2029.98	2759.75
2028.31	2738.75
2026.65	2730.75
2024.98	2711.25
2023.31	2664.5
2021.65	2679.5
2019.98	2654.25
2018.31	2682.5
2016.64	2656
2014.97	2647
2013.3	2647
2011.63	2662.25
2009.96	2630.25
2008.29	2627.5
2006.62	2629.75
2004.95	2593.75
2003.28	2592.25
2001.6	2567.75
1999.93	2622.75
1998.26	2570.75
1996.58	2563
1994.91	2585.5
1993.24	2547.25
1991.56	2551.25
1989.89	2493.75
1988.21	2488.25
1986.53	2520.5
1984.86	2473.75
1983.18	2475.25
1981.5	2466.5
1979.82	2450.5
1978.15	2434.5
1976.47	2455
1974.79	2470.25
1973.11	2426
1971.43	2438.25
1969.75	2431.5
1968.07	2363.25
1966.38	2372.5
1964.7	2371.5
1963.02	2357.5
1961.34	2365
1959.66	2336
1957.97	2346
1956.29	2321.75
1954.6	2294.25
1952.92	2308.75
1951.23	2282.75
1949.55	2290
1947.86	2300.75
1946.18	2276.75
1944.49	2234.25
1942.8	2226.75
1941.11	2244.25
1939.43	2229.25
1937.74	2234
1936.05	2200.75
1934.36	2223.5
1932.67	2203.5
1930.98	2200.75
1929.29	2176.25
1927.6	2148.5
1925.91	2099.5
1924.21	2113.5
1922.52	2134
1920.83	2144.75
1919.14	2108
1917.44	2090
1915.75	2101
1914.05	2111.25
1912.36	2093
1910.66	2124.75
1908.97	2069.25
1907.27	2025.5
1905.58	2084.5
1903.88	2064.5
1902.18	2008.75
1900.48	2029.25
1898.79	1983.5
1897.09	1976
1895.39	1978.25
1893.69	1955.5
1891.99	1970.75
1890.29	1949
1888.59	1924.5
1886.89	1941
1885.18	1942.5
1883.48	1914.5
1881.78	1896.75
1880.08	1880
1878.37	1902
1876.67	1865.25
1874.96	1862.25
1873.26	1850.75
1871.55	1844.5
1869.85	1800.25
1868.14	1832.75
1866.44	1842.75
1864.73	1803.5
1863.02	1828.25
1861.32	1774.75
1859.61	1773
1857.9	1788
1856.19	1779.75
1854.48	1768
1852.77	1788
1851.06	1760.75
1849.35	1761.25
1847.64	1732
1845.93	1772.75
1844.21	1710.25
1842.5	1711.75
1840.79	1743.25
1839.08	1769
1837.36	1729.25
1835.65	1705.25
1833.93	1697.75
1832.22	1679
1830.5	1694.75
1828.79	1675.25
1827.07	1690
1825.36	1683.5
1823.64	1627.5
1821.92	1616.75
1820.2	1601.5
1818.48	1625
1816.77	1616.25
1815.05	1635
1813.33	1628
1811.61	1611
1809.89	1599
1808.16	1590
1806.44	1585
1804.72	1579
1803	1559.5
1801.28	1573
1799.55	1581.25
1797.83	1527.75
1796.11	1542.75
1794.38	1566
1792.66	1489.5
1790.93	1480.5
1789.21	1500
1787.48	1506.25
1785.75	1472.25
1784.03	1442
1782.3	1434.25
1780.57	1449
1778.84	1476.75
1777.11	1465.25
1775.38	1463
1773.66	1466.5
1771.93	1471
1770.19	1435.5
1768.46	1454.75
1766.73	1467
1765	1460.75
1763.27	1479.25
1761.54	1445
1759.8	1456.5
1758.07	1461.25
1756.34	1476.25
1754.6	1455.25
1752.87	1455.5
1751.13	1449
1749.4	1458.5
1747.66	1496.75
1745.92	1426.5
1744.19	1473.25
1742.45	1437.75
1740.71	1426.5
1738.97	1408
1737.23	1378
1735.49	1405.75
1733.75	1412
1732.01	1356.75
1730.27	1380
1728.53	1400.5
1726.79	1367
1725.05	1344.25
1723.31	1354.5
1721.57	1348.25
1719.82	1322.25
1718.08	1333.5
1716.34	1285.25
1714.59	1295
1712.85	1282.25
1711.1	1293.25
1709.36	1266
1707.61	1293
1705.86	1270.5
1704.12	1264.75
1702.37	1268
1700.62	1225
1698.87	1244
1697.12	1231.25
1695.37	1215.25
1693.62	1226.5
1691.87	1235.25
1690.12	1201.5
1688.37	1195.75
1686.62	1226.75
1684.87	1189.75
1683.12	1187.5
1681.36	1227
1679.61	1207.75
1677.86	1217
1676.1	1185
1674.35	1238.75
1672.59	1195
1670.84	1234
1669.08	1246.25
1667.33	1232
1665.57	1265
1663.81	1308
1662.06	1326.75
1660.3	1353.5
1658.54	1370.75
1656.78	1363.5
1655.02	1344.75
1653.26	1303
1651.5	1260.25
1649.74	1241
1647.98	1241.5
1646.22	1169.25
1644.46	1152.5
1642.7	1157.5
1640.93	1153
1639.17	1119
1637.41	1078.5
1635.64	1107.75
1633.88	1083
1632.11	1096
1630.35	1098.75
1628.58	1076.5
1626.81	1064.75
1625.05	1062
1623.28	1065.5
1621.51	1052.75
1619.75	1036
1617.98	1035.5
1616.21	1024
1614.44	1042.25
1612.67	1016.75
1610.9	1009.75
1609.13	1023.5
1607.36	1025.5
1605.58	1013.5
1603.81	1023.75
1602.04	986.75
1600.27	1006.75
1598.49	979.25
1596.72	991
1594.95	990.25
1593.17	983
1591.4	994
1589.62	986.5
1587.84	994.75
1586.07	949.25
1584.29	988.75
1582.51	998.5
1580.74	961.5
1578.96	965.25
1577.18	982.25
1575.4	969.5
1573.62	910
1571.84	947
1570.06	954.5
1568.28	927.25
1566.5	936
1564.72	931
1562.93	951.25
1561.15	923.75
1559.37	935.5
1557.58	920.5
1555.8	952.25
1554.02	922
1552.23	898
1550.45	932.5
1548.66	906.5
1546.87	924
1545.09	864.25
1543.3	894.25
1541.51	873.25
1539.72	831.5
1537.94	898.5
1536.15	894.75
1534.36	867.5
1532.57	852.25
1530.78	840.75
1528.99	887.25
1527.2	860.5
1525.4	833
1523.61	840.5
1521.82	881.5
1520.03	848
1518.23	846.5
1516.44	844.5
1514.65	852.75
1512.85	836.5
1511.06	830
1509.26	842.25
1507.46	821.75
1505.67	814
1503.87	863
1502.07	851.5
1500.28	841.25
1498.48	829.5
1496.68	876.5
1494.88	843.75
1493.08	829
1491.28	791.5
1489.48	823.75
1487.68	852
1485.88	839
1484.08	842.25
1482.27	833.25
1480.47	858.5
1478.67	852.25
1476.86	891.75
1475.06	908
1473.25	960.5
1471.45	947
1469.64	939.75
1467.84	985.5
1466.03	1047.75
1464.23	1045.5
1462.42	1095
1460.61	1015
1458.8	1115.25
1456.99	1122
1455.18	1111.75
1453.37	1140.75
1451.56	1141
1449.75	1184
1447.94	1195.75
1446.13	1222.5
1444.32	1249.5
1442.51	1232.5
1440.7	1230.25
1438.88	1235.75
1437.07	1162.25
1435.26	1105.5
1433.44	1070.5
1431.63	999.5
1429.81	930.75
1427.99	925.75
1426.18	881.25
1424.36	876.5
1422.54	832
1420.73	833.25
1418.91	820.5
1417.09	812.5
1415.27	777.25
1413.45	777
1411.63	774.5
1409.81	763
1407.99	743.75
1406.17	739.75
1404.35	757.25
1402.53	714.25
1400.7	714
1398.88	753.25
1397.06	690.5
1395.23	708.25
1393.41	709.5
1391.58	688.75
1389.76	686
1387.93	693.25
1386.11	689.5
1384.28	716
1382.45	675.5
1380.62	710.75
1378.8	695.25
1376.97	688.75
1375.14	692.5
1373.31	694
1371.48	641
1369.65	709.5
1367.82	655
1365.99	677.5
1364.16	678.75
1362.32	664.75
1360.49	686.25
1358.66	685
1356.82	668
1354.99	682
1353.16	657.25
1351.32	670.5
1349.48	681.25
1347.65	651
1345.81	668.5
1343.98	677.25
1342.14	667
1340.3	662
1338.46	651.75
1336.62	634
1334.79	675
1332.95	683.5
1331.11	702.25
1329.27	691.75
1327.42	695.25
1325.58	736.25
1323.74	755.75
1321.9	744.5
1320.06	779.75
1318.21	775
1316.37	808.25
1314.53	820.25
1312.68	855.75
1310.84	853.75
1308.99	864.5
1307.15	921.5
1305.3	949.75
1303.45	946.5
1301.61	910
1299.76	900.25
1297.91	911.25
1296.06	847.75
1294.21	833
1292.36	792.5
1290.51	794
1288.66	775.5
1286.81	747.5
1284.96	766.25
1283.11	760
1281.26	716.5
1279.4	754.5
1277.55	753.75
1275.7	768
1273.84	750.75
1271.99	755.5
1270.13	752.25
1268.28	773.5
1266.42	762.5
1264.56	724.5
1262.71	724
1260.85	765
1258.99	725
1257.13	694.25
1255.27	693.25
1253.41	692.75
1251.56	681
1249.7	655.5
1247.83	617.25
1245.97	634.25
1244.11	616
1242.25	593.25
1240.39	603
1238.52	615.5
1236.66	601.75
1234.8	584.75
1232.93	596
1231.07	593
1229.2	589.25
1227.34	564.5
1225.47	526
1223.6	557.75
1221.74	560.5
1219.87	538.75
1218	557.25
1216.13	538.5
1214.26	527.5
1212.39	542
1210.53	536
1208.65	539.75
1206.78	526.75
1204.91	519.5
1203.04	543.25
1201.17	520
1199.3	515
1197.42	516.25
1195.55	535.25
1193.68	529
1191.8	536
1189.93	515.25
1188.05	527.25
1186.17	496.5
1184.3	505.25
1182.42	519.25
1180.54	509
1178.67	496.25
1176.79	509.75
1174.91	522
1173.03	485.75
1171.15	546.25
1169.27	517
1167.39	493.25
1165.51	521.25
1163.63	514
1161.75	527.25
1159.86	528
1157.98	506.25
1156.1	502
1154.21	519
1152.33	506.25
1150.44	486.5
1148.56	527.5
1146.67	505
1144.79	499
1142.9	528.25
1141.01	511.75
1139.12	534.25
1137.24	526.5
1135.35	531.75
1133.46	529
1131.57	546
1129.68	568.5
1127.79	570.75
1125.9	546.5
1124.01	573.5
1122.12	548.75
1120.22	585
1118.33	565.25
1116.44	564.75
1114.54	558.25
1112.65	590.5
1110.75	548.75
1108.86	584.75
1106.96	546.5
1105.07	573
1103.17	584.75
1101.27	603
1099.38	585.25
1097.48	615.75
1095.58	640
1093.68	651.5
1091.78	660
1089.88	646
1087.98	690.5
1086.08	687
1084.18	682.75
1082.28	675.5
1080.38	697.75
1078.47	682
1076.57	669.75
1074.67	677.75
1072.76	676.25
1070.86	682.5
1068.95	657.25
1067.05	699.25
1065.14	674
1063.24	651.75
1061.33	643.75
1059.42	667.25
1057.51	582
1055.6	604
1053.7	584.25
1051.79	570.5
1049.88	581
1047.97	573
1046.06	553.5
1044.14	557.5
1042.23	540.5
1040.32	558.25
1038.41	567.25
1036.5	542.5
1034.58	535.5
1032.67	579.5
1030.75	550.25
1028.84	543
1026.92	557.25
1025.01	531.5
1023.09	571.25
1021.17	514
1019.26	549.5
1017.34	528.25
1015.42	538
1013.5	565.75
1011.58	519
1009.66	541
1007.74	540.5
1005.82	536.5
1003.9	532.75
1001.98	553.5
1000.06	544.5
998.134	564
996.212	545.75
994.288	548.5
992.364	549
990.44	544
988.515	580.25
986.589	602.75
984.663	608.5
982.737	624
980.81	653.75
978.883	668
976.955	645.25
975.027	690
973.098	679.5
971.169	686.75
969.239	668
967.308	683
965.378	653.75
963.447	651.25
961.516	682
959.583	664.5
957.65	711
955.718	709.75
953.784	699
951.85	745.5
949.916	688.5
947.981	685
946.045	733
944.109	731.75
942.173	739
940.236	730.75
938.298	708.75
936.36	709.75
934.422	695.5
932.484	676.25
930.544	645.75
928.604	633.25
926.664	614
924.724	612.5
922.782	585.5
920.84	595.75
918.898	608
916.955	588
915.012	591.5
913.068	560
911.124	574.25
909.18	592.75
907.235	572.5
905.289	587.5
903.343	597.75
901.397	617
899.45	613.25
897.502	622
895.554	605.5
893.605	643.5
891.657	619.5
889.707	648.75
887.758	622.5
885.807	628
883.856	647
881.905	621.5
879.953	669.75
878.001	654.25
876.048	648.75
874.094	660.5
872.14	658.75
870.186	661.25
868.232	660.25
866.276	661
864.321	665.25
862.365	657.5
860.408	640.5
858.451	624.75
856.493	646.5
854.535	662.25
852.576	595.75
850.617	630.25
848.658	640.75
846.698	634.75
844.737	611
842.776	626.5
840.814	616
838.852	597.5
836.89	569.5
834.927	573
832.963	593
830.999	561.75
829.035	590.5
827.07	554.5
825.105	551
823.139	509.5
821.172	509.5
819.206	535
817.238	496.5
815.27	500
813.301	511
811.333	487
809.363	457
807.394	457.5
805.424	486.5
803.453	488.25
801.482	470.75
799.509	449.75
797.538	446.5
795.565	454.75
793.592	427.75
791.618	443.25
789.643	440.75
787.669	446.25
785.693	441
783.718	414.5
781.742	436
779.765	456.5
777.788	441.25
775.811	443.75
773.832	442
771.853	415
769.875	449.75
767.895	439.25
765.915	452
763.934	435.5
761.953	426.75
759.972	431
757.99	437.25
756.007	429.75
754.024	421
752.041	455.5
750.056	430
748.072	433.25
746.087	459.75
744.102	441.5
742.116	427.25
740.13	417.75
738.143	430.75
736.155	452
734.167	456.5
732.179	438.25
730.19	463.25
728.2	457.5
726.21	442.75
724.22	451.25
722.229	467
720.237	449.5
718.246	448.75
716.253	441.25
714.26	441.5
712.267	439.25
710.273	455.25
708.279	432.25
706.284	413
704.289	429.25
702.293	443.75
700.296	426.75
698.3	426.5
696.303	421.25
694.305	394
692.307	451
690.307	410.25
688.308	436
686.309	458.5
684.308	435.25
682.308	414.25
680.306	420.75
678.304	456
676.302	440.25
674.3	446.5
672.296	425.75
670.293	413.25
668.289	475.75
666.284	428
664.278	429
662.273	450
660.266	456
658.26	448.5
656.252	444.25
654.244	440.5
652.237	434.5
650.227	414.5
648.218	454.75
646.209	463.75
644.198	456.5
642.188	425.75
640.177	447.25
638.165	453.5
636.153	456
634.14	468
632.128	453.75
630.113	465
628.099	474.25
626.085	477.75
624.07	487
622.054	506.75
620.038	474.75
618.021	461.75
616.004	488
613.986	496
611.968	484.25
609.949	505
607.93	478
605.911	507.5
603.891	479.75
601.87	482.75
599.848	481.75
597.827	494.5
595.805	476.5
593.782	479
591.759	464
589.735	470.75
587.711	465.25
585.687	467.5
583.661	445.5
581.636	481.75
579.609	478
577.583	465.25
575.555	469.5
573.527	451.25
571.5	481
569.471	476.75
567.441	460.75
565.412	474.75
563.382	486.5
561.351	504
559.32	489.75
557.289	527.25
555.257	504
553.223	516.25
551.19	537.5
549.157	546.5
547.122	576.25
545.088	594.75
543.053	590.5
541.017	661
538.981	698.5
536.943	777
534.907	904
532.869	1179
530.831	1497.25
528.792	2171.5
526.752	3216.25
524.713	4485
522.673	5345.5
520.632	5144.5
518.591	4168.75
516.549	3022
514.507	2178.75
512.464	1499
510.42	1088
508.377	888.75
506.332	775.5
504.288	692.5
502.242	651
500.196	650.75
498.15	614.75
496.104	611
494.056	609
492.008	567.5
489.96	577.25
487.911	593.75
485.862	587.5
483.812	604.25
481.761	579
479.71	532.75
477.659	551
475.607	551.5
473.555	543
471.502	554.25
469.448	561
467.395	561.25
465.34	535
463.285	572
461.23	545.75
459.174	559
457.118	540.5
455.061	571.5
453.003	558.75
450.945	578
448.887	572
446.828	593
444.768	600.75
442.708	596.25
440.647	598.75
438.587	607.5
436.525	613.75
434.463	593.25
432.4	605
430.337	607.75
428.274	613
426.21	598.25
424.145	597.25
422.079	602
420.014	612.5
417.948	629.25
415.882	624
413.814	606.25
411.746	614.75
409.679	639
407.609	649.75
405.54	624.75
403.47	624
401.401	623
399.329	620.25
397.258	631
395.187	635.25
393.114	653.25
391.041	627.5
388.968	635.5
386.895	648
384.82	644.25
382.745	670.25
380.67	670.75
378.594	654
376.517	662
374.44	664.5
372.363	671.25
370.286	655.75
368.207	683.25
366.128	697.75
364.049	692.25
361.969	712.5
359.888	713.75
357.807	712.25
355.725	663
353.643	698
351.561	727.5
349.477	710.25
347.394	724.5
345.31	685.5
343.226	736.5
341.141	738
339.055	748.5
336.968	744.75
334.882	750.5
332.795	740.5
330.707	784.5
328.618	788.5
326.53	788.25
324.44	772.75
322.351	806.75
320.26	825
318.17	861
316.078	848.25
313.987	881.75
311.895	912.75
309.802	948.75
307.708	957.25
305.614	982.75
303.52	1003.75
301.425	996.75
299.329	972
297.233	923.75
295.137	941.5
293.039	902.25
290.942	919.75
288.844	907.25
286.745	911.5
284.647	874.25
282.546	892
280.446	935
278.346	916
276.245	926.75
274.143	925.5
272.041	933.5
269.939	940
267.835	919.5
265.731	955.5
263.627	955
261.522	968.75
259.417	954.25
257.311	984.75
255.204	991.25
253.098	982.25
250.99	995.75
248.882	1045.25
246.774	1032
244.664	1024.75
242.555	1054.5
240.445	1053.25
238.334	1053.75
236.223	1105.75
234.112	1086.75
232	1122.25
229.888	1099.75
227.775	1096.5
225.661	1132
223.546	1155
221.431	1109.25
219.316	1188.75
217.201	1191.5
215.084	1124
212.967	1158.25
210.85	1191.25
208.732	1213.5
206.614	1207
204.495	1208.25
202.375	1254.75
200.256	1201.25
198.135	1219.5
196.014	1213
193.893	1273.5
191.771	1258
189.648	1259.75
187.525	1244
185.401	1272.25
183.277	1273.5
181.152	1300.25
179.027	1324.75
176.901	1330.75
174.775	1361.75
172.648	1373.5
170.521	1390.5
168.393	1416
166.265	1450
164.136	1428.25
162.007	1456.25
159.876	1513.25
157.746	1498.25
155.615	1520.25
153.483	1565.25
151.351	1589
149.219	1629.25
147.086	1671
144.952	1700.75
142.818	1775.25
140.684	1775.75
138.548	1867.25
136.413	1863.5
134.276	1923.5
132.139	1943.5
130.002	2028.5
127.864	2076.75
125.725	2118.5
123.587	2219.5
121.447	2269.5
119.307	2346
117.166	2371
115.026	2445.25
112.885	2494.5
110.743	2531
108.6	2565.75
106.456	2570.25
104.313	2598.25
102.169	2483.5
100.023	2381.5
97.8789	2215.25
95.7328	1971.5
93.5869	1662.5
91.4392	1415.5
89.2919	1146.5
87.1447	880
84.9959	685
