3528.51	165
3527.23	168
3525.95	154.5
3524.67	165.5
3523.39	201
3522.1	165
3520.82	148
3519.54	169.5
3518.26	185.5
3516.97	180.5
3515.69	180
3514.4	183.5
3513.12	167.5
3511.84	202
3510.55	181.5
3509.26	180
3507.98	178.5
3506.69	193
3505.41	156
3504.12	189.5
3502.83	168.5
3501.54	207.5
3500.26	186
3498.97	179.5
3497.68	209
3496.39	196.5
3495.1	211
3493.81	214.5
3492.52	218
3491.23	214.5
3489.94	187.5
3488.65	226.5
3487.36	224
3486.07	222
3484.78	207
3483.49	179
3482.19	219
3480.9	230
3479.61	222
3478.31	234.5
3477.02	244
3475.73	251
3474.43	253.5
3473.14	232
3471.84	223
3470.54	258
3469.25	222.5
3467.95	239
3466.66	238
3465.36	233.5
3464.06	285
3462.76	228
3461.46	265
3460.17	244
3458.87	280
3457.57	251
3456.27	267.5
3454.97	283
3453.67	279.5
3452.37	262
3451.07	255
3449.77	257.5
3448.47	262
3447.16	286.5
3445.86	281
3444.56	288
3443.26	329
3441.95	287
3440.65	280
3439.35	300
3438.04	312
3436.74	340
3435.43	312
3434.13	326
3432.82	314
3431.52	339
3430.21	338
3428.9	365
3427.6	327
3426.29	371
3424.98	378
3423.67	359.5
3422.36	364
3421.06	376
3419.75	367
3418.44	406
3417.13	394
3415.82	404
3414.51	412
3413.2	389.5
3411.88	416
3410.57	413
3409.26	417
3407.95	430.5
3406.64	421.5
3405.32	406
3404.01	449.5
3402.7	452.5
3401.38	454.5
3400.07	436.5
3398.75	456
3397.44	438.5
3396.12	462.5
3394.81	474.5
3393.49	451
3392.18	440.5
3390.86	494.5
3389.54	489
3388.23	466
3386.91	456
3385.59	494
3384.27	488.5
3382.95	476.5
3381.63	488
3380.31	491.5
3378.99	492
3377.67	508.5
3376.35	512
3375.03	498
3373.71	532
3372.39	495.5
3371.07	545
3369.75	516.5
3368.42	567
3367.1	549
3365.78	568.5
3364.45	535
3363.13	547
3361.81	542.5
3360.48	574
3359.16	537.5
3357.83	555.5
3356.51	562
3355.18	569
3353.85	589.5
3352.53	557.5
3351.2	550
3349.87	584.5
3348.54	595
3347.22	570
3345.89	626
3344.56	583
3343.23	599.5
3341.9	583
3340.57	579
3339.24	581.5
3337.91	593
3336.58	608
3335.25	595
3333.92	589
3332.58	614.5
3331.25	628.5
3329.92	587.5
3328.59	623.5
3327.25	637.5
3325.92	619
3324.58	623
3323.25	656.5
3321.92	576.5
3320.58	614
3319.25	631.5
3317.91	643
3316.57	617.5
3315.24	639
3313.9	619
3312.56	633
3311.23	656
3309.89	630
3308.55	648
3307.21	652
3305.87	655.5
3304.53	630
3303.19	632.5
3301.85	672.5
3300.51	659.5
3299.17	705
3297.83	655
3296.49	671.5
3295.15	659.5
3293.81	681
3292.46	706.5
3291.12	655
3289.78	656
3288.43	672
3287.09	690.5
3285.75	655
3284.4	697.5
3283.06	714.5
3281.71	689.5
3280.37	689
3279.02	699
3277.67	713.5
3276.33	702
3274.98	742
3273.63	724
3272.28	734
3270.94	710.5
3269.59	715
3268.24	681.5
3266.89	728
3265.54	742.5
3264.19	756
3262.84	742
3261.49	766.5
3260.14	744
3258.79	777.5
3257.44	780.5
3256.08	796
3254.73	808.5
3253.38	778
3252.03	851.5
3250.67	817
3249.32	840.5
3247.96	844
3246.61	909.5
3245.26	921
3243.9	954.5
3242.54	939
3241.19	974.5
3239.83	988.5
3238.48	1009
3237.12	1064.5
3235.76	1105
3234.41	1113.5
3233.05	1122
3231.69	1058
3230.33	1165
3228.97	1218.5
3227.61	1191
3226.25	1254
3224.89	1321
3223.53	1311.5
3222.17	1338.5
3220.81	1369
3219.45	1384.5
3218.09	1439.5
3216.72	1438
3215.36	1460.5
3214	1508.5
3212.63	1523
3211.27	1506.5
3209.91	1495
3208.54	1524
3207.18	1592
3205.81	1563.5
3204.45	1604
3203.08	1639.5
3201.71	1605
3200.35	1605.5
3198.98	1655.5
3197.61	1615
3196.25	1634
3194.88	1665.5
3193.51	1684.5
3192.14	1675.5
3190.77	1672
3189.4	1693
3188.03	1722
3186.66	1661
3185.29	1692
3183.92	1681
3182.55	1729
3181.18	1718
3179.81	1792.5
3178.44	1727
3177.06	1730.5
3175.69	1757
3174.32	1790
3172.94	1785.5
3171.57	1808.5
3170.2	1790.5
3168.82	1846
3167.45	1834
3166.07	1854.5
3164.69	1859
3163.32	1845.5
3161.94	1922.5
3160.56	1950.5
3159.19	1913.5
3157.81	1928.5
3156.43	1967
3155.05	1973
3153.67	2064
3152.3	1984
3150.92	2032
3149.54	2069.5
3148.16	2014
3146.78	2108.5
3145.4	2056
3144.01	2111
3142.63	2085
3141.25	2154
3139.87	2154.5
3138.49	2155.5
3137.1	2190.5
3135.72	2188
3134.34	2193
3132.95	2227.5
3131.57	2240
3130.18	2276.5
3128.8	2230
3127.41	2266
3126.03	2284.5
3124.64	2286.5
3123.25	2315
3121.87	2373
3120.48	2339
3119.09	2345.5
3117.7	2364
3116.32	2414.5
3114.93	2408.5
3113.54	2371
3112.15	2469.5
3110.76	2408
3109.37	2481.5
3107.98	2470.5
3106.59	2439.5
3105.2	2526.5
3103.8	2473.5
3102.41	2499
3101.02	2514
3099.63	2568.5
3098.23	2517.5
3096.84	2518
3095.45	2528
3094.05	2532.5
3092.66	2536.5
3091.26	2612.5
3089.87	2587.5
3088.47	2599
3087.08	2635
3085.68	2633.5
3084.28	2587
3082.89	2665
3081.49	2621
3080.09	2652.5
3078.69	2662.5
3077.3	2629
3075.9	2647.5
3074.5	2681
3073.1	2684
3071.7	2678.5
3070.3	2720.5
3068.9	2724
3067.5	2718.5
3066.09	2754
3064.69	2746.5
3063.29	2767
3061.89	2794.5
3060.48	2790.5
3059.08	2769
3057.68	2783.5
3056.27	2812.5
3054.87	2834
3053.46	2736
3052.06	2760
3050.65	2878.5
3049.25	2851.5
3047.84	2807.5
3046.44	2806
3045.03	2881
3043.62	2893.5
3042.21	2889
3040.81	2881
3039.4	2911.5
3037.99	2902
3036.58	2891
3035.17	2938.5
3033.76	2955.5
3032.35	2929.5
3030.94	2968.5
3029.53	2954
3028.12	2916
3026.71	2929
3025.29	2935
3023.88	2923
3022.47	2943.5
3021.06	2969.5
3019.64	2922.5
3018.23	2947.5
3016.82	2946.5
3015.4	2990.5
3013.99	2976.5
3012.57	3034
3011.15	3061
3009.74	2992
3008.32	3040
3006.91	3065
3005.49	3076
3004.07	3083
3002.65	3027.5
3001.24	3099.5
2999.82	3069
2998.4	3053.5
2996.98	3071.5
2995.56	3050
2994.14	3077
2992.72	3105
2991.3	3092.5
2989.88	3061.5
2988.46	3139.5
2987.03	3182
2985.61	3180
2984.19	3208
2982.77	3221
2981.34	3254.5
2979.92	3268.5
2978.49	3274.5
2977.07	3338
2975.65	3310
2974.22	3308
2972.79	3357
2971.37	3345.5
2969.94	3362.5
2968.52	3346
2967.09	3368
2965.66	3417
2964.23	3381.5
2962.81	3489.5
2961.38	3424.5
2959.95	3421
2958.52	3503.5
2957.09	3452.5
2955.66	3414.5
2954.23	3458.5
2952.8	3427.5
2951.37	3467
2949.94	3489.5
2948.5	3478.5
2947.07	3557.5
2945.64	3512.5
2944.21	3532.5
2942.77	3543.5
2941.34	3551
2939.91	3543.5
2938.47	3589.5
2937.04	3617
2935.6	3587.5
2934.17	3606.5
2932.73	3580.5
2931.29	3613.5
2929.86	3618.5
2928.42	3646.5
2926.98	3642
2925.55	3622
2924.11	3617.5
2922.67	3699
2921.23	3679
2919.79	3685.5
2918.35	3693
2916.91	3754
2915.47	3730.5
2914.03	3702
2912.59	3640
2911.15	3689
2909.71	3695.5
2908.26	3734
2906.82	3715
2905.38	3740
2903.94	3698
2902.49	3715
2901.05	3772.5
2899.6	3714
2898.16	3742
2896.71	3771
2895.27	3765.5
2893.82	3730.5
2892.38	3778
2890.93	3723
2889.48	3745
2888.03	3734
2886.59	3764
2885.14	3733
2883.69	3721
2882.24	3735
2880.79	3734
2879.34	3728.5
2877.89	3686.5
2876.44	3740
2874.99	3710
2873.54	3684.5
2872.09	3696
2870.64	3726
2869.18	3739.5
2867.73	3762
2866.28	3827
2864.83	3806.5
2863.37	3799.5
2861.92	3732.5
2860.46	3765
2859.01	3804.5
2857.55	3805.5
2856.1	3838
2854.64	3791
2853.19	3842
2851.73	3813
2850.27	3803
2848.81	3833
2847.36	3811.5
2845.9	3856.5
2844.44	3816
2842.98	3792.5
2841.52	3848
2840.06	3832
2838.6	3838
2837.14	3820
2835.68	3858
2834.22	3865
2832.76	3881
2831.3	3853.5
2829.83	3851.5
2828.37	3867.5
2826.91	3859
2825.44	3859
2823.98	3823
2822.52	3857.5
2821.05	3790.5
2819.59	3839
2818.12	3804
2816.66	3751
2815.19	3804.5
2813.72	3740.5
2812.26	3773
2810.79	3759
2809.32	3750.5
2807.85	3794
2806.38	3691.5
2804.92	3720
2803.45	3752
2801.98	3769
2800.51	3735
2799.04	3728.5
2797.57	3765.5
2796.1	3762.5
2794.62	3758.5
2793.15	3734.5
2791.68	3763.5
2790.21	3748.5
2788.73	3735.5
2787.26	3732
2785.79	3756.5
2784.31	3712.5
2782.84	3716.5
2781.36	3713.5
2779.89	3706
2778.41	3687.5
2776.94	3739
2775.46	3719
2773.99	3732.5
2772.51	3709.5
2771.03	3732
2769.55	3722.5
2768.07	3723
2766.6	3761.5
2765.12	3698.5
2763.64	3758.5
2762.16	3771
2760.68	3772
2759.2	3758
2757.72	3700
2756.24	3720
2754.75	3681.5
2753.27	3725
2751.79	3678
2750.31	3710.5
2748.82	3709
2747.34	3707.5
2745.86	3702
2744.37	3699.5
2742.89	3689
2741.4	3766
2739.92	3691.5
2738.43	3695
2736.94	3652
2735.46	3638.5
2733.97	3666.5
2732.48	3703
2731	3669.5
2729.51	3695.5
2728.02	3695.5
2726.53	3689.5
2725.04	3631
2723.55	3674
2722.06	3720.5
2720.57	3703
2719.08	3704
2717.59	3680
2716.1	3672
2714.61	3710.5
2713.11	3695.5
2711.62	3664.5
2710.13	3707.5
2708.64	3692
2707.14	3663
2705.65	3654
2704.15	3686
2702.66	3702
2701.16	3632.5
2699.67	3581
2698.17	3609
2696.67	3671
2695.18	3625.5
2693.68	3601
2692.18	3685.5
2690.69	3609.5
2689.19	3599
2687.69	3626
2686.19	3598
2684.69	3589.5
2683.19	3511
2681.69	3566.5
2680.19	3602.5
2678.69	3527.5
2677.19	3603
2675.68	3611.5
2674.18	3554.5
2672.68	3563.5
2671.18	3554
2669.67	3553
2668.17	3536.5
2666.66	3567
2665.16	3491
2663.66	3533.5
2662.15	3501.5
2660.64	3540
2659.14	3542.5
2657.63	3561
2656.13	3538
2654.62	3517.5
2653.11	3497.5
2651.6	3476.5
2650.09	3487
2648.58	3496.5
2647.08	3504
2645.57	3483
2644.06	3507.5
2642.55	3478
2641.04	3497
2639.52	3466.5
2638.01	3496.5
2636.5	3447.5
2634.99	3470
2633.48	3439
2631.96	3482
2630.45	3429
2628.94	3428.5
2627.42	3417
2625.91	3451
2624.39	3479.5
2622.88	3422
2621.36	3501
2619.85	3427.5
2618.33	3491.5
2616.81	3346.5
2615.3	3467
2613.78	3401.5
2612.26	3429.5
2610.74	3431
2609.22	3468
2607.7	3463.5
2606.18	3405
2604.66	3397.5
2603.14	3334.5
2601.62	3343.5
2600.1	3342.5
2598.58	3276.5
2597.06	3299
2595.54	3292.5
2594.01	3357
2592.49	3360
2590.97	3316
2589.44	3343
2587.92	3308
2586.39	3324
2584.87	3329.5
2583.34	3291.5
2581.82	3274.5
2580.29	3260
2578.76	3260
2577.24	3328
2575.71	3263.5
2574.18	3256
2572.65	3218
2571.13	3271.5
2569.6	3197
2568.07	3180.5
2566.54	3251
2565.01	3189
2563.48	3121.5
2561.95	3180
2560.42	3184.5
2558.88	3169
2557.35	3151.5
2555.82	3160
2554.29	3120
2552.75	3158
2551.22	3162.5
2549.69	3121.5
2548.15	3122.5
2546.62	3179.5
2545.08	3128.5
2543.55	3142.5
2542.01	3113.5
2540.47	3110
2538.94	3086
2537.4	3077
2535.86	3039
2534.33	3032.5
2532.79	3036.5
2531.25	3068
2529.71	3010
2528.17	2991
2526.63	3030.5
2525.09	2973.5
2523.55	2955.5
2522.01	2989.5
2520.47	2939
2518.92	2974.5
2517.38	2959.5
2515.84	2995.5
2514.3	2907.5
2512.75	2941
2511.21	2897
2509.67	2952
2508.12	2934
2506.58	2935.5
2505.03	2890.5
2503.49	2907
2501.94	2869
2500.39	2876.5
2498.85	2866.5
2497.3	2919
2495.75	2855.5
2494.2	2865.5
2492.65	2863.5
2491.11	2858.5
2489.56	2860.5
2488.01	2807
2486.46	2807.5
2484.91	2852
2483.36	2766
2481.8	2831.5
2480.25	2840
2478.7	2836.5
2477.15	2808.5
2475.6	2803.5
2474.04	2723
2472.49	2750.5
2470.93	2784.5
2469.38	2773.5
2467.83	2729.5
2466.27	2772
2464.71	2704
2463.16	2682
2461.6	2704
2460.05	2714
2458.49	2677.5
2456.93	2651
2455.37	2632
2453.81	2648.5
2452.26	2623
2450.7	2677.5
2449.14	2577
2447.58	2567
2446.02	2616
2444.46	2534.5
2442.9	2655
2441.33	2646.5
2439.77	2563.5
2438.21	2596
2436.65	2574
2435.08	2616.5
2433.52	2573
2431.96	2542.5
2430.39	2584.5
2428.83	2537.5
2427.26	2518
2425.7	2546
2424.13	2527.5
2422.56	2527
2421	2538
2419.43	2516
2417.86	2490
2416.3	2496.5
2414.73	2469.5
2413.16	2467
2411.59	2449.5
2410.02	2497.5
2408.45	2433
2406.88	2438.5
2405.31	2425
2403.74	2469
2402.17	2465.5
2400.6	2357
2399.02	2463
2397.45	2401.5
2395.88	2411
2394.3	2362.5
2392.73	2363.5
2391.16	2374.5
2389.58	2357
2388.01	2357
2386.43	2368
2384.86	2376.5
2383.28	2357
2381.7	2328.5
2380.13	2376.5
2378.55	2341
2376.97	2334
2375.39	2357
2373.81	2356
2372.23	2375
2370.65	2340.5
2369.07	2376
2367.49	2344
2365.91	2422
2364.33	2338
2362.75	2340
2361.17	2334
2359.59	2299.5
2358.01	2284
2356.42	2272.5
2354.84	2270.5
2353.25	2310
2351.67	2310.5
2350.09	2312.5
2348.5	2254
2346.92	2332.5
2345.33	2275
2343.74	2246
2342.16	2277.5
2340.57	2240.5
2338.98	2233
2337.39	2265
2335.81	2230.5
2334.22	2246
2332.63	2239
2331.04	2184.5
2329.45	2268
2327.86	2280
2326.27	2196
2324.68	2239.5
2323.09	2256
2321.49	2235.5
2319.9	2164
2318.31	2164.5
2316.72	2241
2315.12	2176
2313.53	2149.5
2311.93	2188
2310.34	2178.5
2308.74	2162
2307.15	2132
2305.55	2160.5
2303.96	2113
2302.36	2161.5
2300.76	2146
2299.17	2131
2297.57	2060
2295.97	2107
2294.37	2062
2292.77	2085
2291.17	2081.5
2289.57	2061.5
2287.97	2052
2286.37	2102.5
2284.77	2032.5
2283.17	2024.5
2281.57	2011.5
2279.96	2052
2278.36	1992
2276.76	1953
2275.15	1994.5
2273.55	1955
2271.95	1942
2270.34	1933
2268.74	1947
2267.13	1926.5
2265.52	1948.5
2263.92	2018
2262.31	1947.5
2260.7	1941
2259.1	1903
2257.49	1929
2255.88	1929.5
2254.27	1975.5
2252.66	1877
2251.05	1916
2249.44	1944
2247.83	1893.5
2246.22	1917
2244.61	1893.5
2243	1855
2241.39	1868
2239.77	1867.5
2238.16	1872.5
2236.55	1879
2234.93	1892.5
2233.32	1883.5
2231.7	1815
2230.09	1844.5
2228.47	1839
2226.86	1787
2225.24	1842.5
2223.63	1785
2222.01	1804.5
2220.39	1835.5
2218.77	1842.5
2217.16	1794
2215.54	1786.5
2213.92	1780
2212.3	1787.5
2210.68	1771
2209.06	1758.5
2207.44	1744
2205.82	1750.5
2204.19	1741
2202.57	1788
2200.95	1751
2199.33	1757
2197.7	1733
2196.08	1740.5
2194.46	1717
2192.83	1730.5
2191.21	1752
2189.58	1728
2187.96	1732
2186.33	1653.5
2184.7	1708
2183.08	1700.5
2181.45	1688
2179.82	1721
2178.19	1678
2176.57	1704.5
2174.94	1726.5
2173.31	1652
2171.68	1683.5
2170.05	1652.5
2168.42	1668.5
2166.79	1668
2165.16	1675
2163.52	1666
2161.89	1649
2160.26	1653
2158.63	1684
2156.99	1669
2155.36	1632
2153.73	1655
2152.09	1655.5
2150.46	1609
2148.82	1629
2147.18	1653.5
2145.55	1640
2143.91	1562
2142.27	1598.5
2140.64	1611
2139	1583.5
2137.36	1601
2135.72	1587
2134.08	1564
2132.44	1542.5
2130.8	1493
2129.16	1552.5
2127.52	1565.5
2125.88	1499
2124.24	1534
2122.6	1548
2120.95	1472
2119.31	1517
2117.67	1537
2116.02	1499
2114.38	1504
2112.74	1494
2111.09	1482
2109.45	1491
2107.8	1513
2106.15	1485
2104.51	1444
2102.86	1421
2101.21	1432
2099.56	1443
2097.92	1445
2096.27	1488
2094.62	1409.5
2092.97	1478
2091.32	1444
2089.67	1476.5
2088.02	1426
2086.37	1486
2084.72	1454.5
2083.06	1405
2081.41	1421
2079.76	1407.5
2078.1	1429
2076.45	1395
2074.8	1394
2073.14	1404
2071.49	1361
2069.83	1412
2068.18	1398
2066.52	1398
2064.86	1379.5
2063.21	1414
2061.55	1404
2059.89	1380
2058.23	1333
2056.57	1357
2054.92	1338
2053.26	1378
2051.6	1368
2049.94	1288
2048.27	1399
2046.61	1319
2044.95	1372.5
2043.29	1352
2041.63	1348
2039.97	1314
2038.3	1342
2036.64	1343
2034.97	1326
2033.31	1307
2031.64	1335
2029.98	1316.5
2028.31	1342
2026.65	1307
2024.98	1300.5
2023.31	1298
2021.65	1266.5
2019.98	1315
2018.31	1262
2016.64	1269
2014.97	1227
2013.3	1301
2011.63	1249
2009.96	1268.5
2008.29	1237
2006.62	1275
2004.95	1263
2003.28	1255.5
2001.6	1262
1999.93	1250
1998.26	1275.5
1996.58	1267
1994.91	1260
1993.24	1261
1991.56	1219
1989.89	1253
1988.21	1241
1986.53	1276
1984.86	1251.5
1983.18	1251.5
1981.5	1255
1979.82	1227
1978.15	1260
1976.47	1216
1974.79	1222.5
1973.11	1233.5
1971.43	1199
1969.75	1223
1968.07	1206
1966.38	1172
1964.7	1221
1963.02	1204
1961.34	1177
1959.66	1157
1957.97	1154
1956.29	1241
1954.6	1140
1952.92	1196
1951.23	1184
1949.55	1161
1947.86	1152
1946.18	1207.5
1944.49	1156
1942.8	1126
1941.11	1121
1939.43	1152
1937.74	1135
1936.05	1178
1934.36	1125
1932.67	1122
1930.98	1156
1929.29	1123
1927.6	1071
1925.91	1134
1924.21	1133
1922.52	1162
1920.83	1114
1919.14	1136
1917.44	1117
1915.75	1114
1914.05	1085
1912.36	1125
1910.66	1100
1908.97	1074
1907.27	1041
1905.58	1046
1903.88	1097
1902.18	1108
1900.48	1063
1898.79	1081
1897.09	1065
1895.39	1064
1893.69	1042
1891.99	1040
1890.29	1013
1888.59	1054
1886.89	1024
1885.18	1027
1883.48	1028
1881.78	1070
1880.08	1053
1878.37	1020
1876.67	1045
1874.96	1010
1873.26	966
1871.55	1025
1869.85	1004
1868.14	1026
1866.44	1054.5
1864.73	1046.5
1863.02	1003
1861.32	1004
1859.61	1013
1857.9	1012
1856.19	997
1854.48	967
1852.77	1026
1851.06	972
1849.35	944
1847.64	976
1845.93	997.5
1844.21	975
1842.5	980
1840.79	996
1839.08	992
1837.36	953
1835.65	970
1833.93	990
1832.22	970
1830.5	988
1828.79	958
1827.07	989
1825.36	940.5
1823.64	981
1821.92	1012.5
1820.2	939
1818.48	949
1816.77	960
1815.05	918
1813.33	988
1811.61	915
1809.89	898
1808.16	918
1806.44	895
1804.72	932
1803	926
1801.28	953
1799.55	965.5
1797.83	866
1796.11	911.5
1794.38	877
1792.66	898
1790.93	923
1789.21	873
1787.48	929.5
1785.75	889
1784.03	905
1782.3	899.5
1780.57	904
1778.84	882
1777.11	919
1775.38	880
1773.66	929
1771.93	890.5
1770.19	867
1768.46	880
1766.73	902
1765	868
1763.27	919
1761.54	892.5
1759.8	923.5
1758.07	895
1756.34	912.5
1754.6	906.5
1752.87	890
1751.13	882
1749.4	934.5
1747.66	893
1745.92	880
1744.19	883
1742.45	908.5
1740.71	925
1738.97	893
1737.23	852
1735.49	910.5
1733.75	889
1732.01	863
1730.27	884
1728.53	894
1726.79	891
1725.05	852
1723.31	881
1721.57	852
1719.82	855
1718.08	901
1716.34	848
1714.59	892
1712.85	856
1711.1	845
1709.36	841
1707.61	814
1705.86	880.5
1704.12	912
1702.37	887
1700.62	872
1698.87	845
1697.12	875.5
1695.37	894
1693.62	851
1691.87	848.5
1690.12	877
1688.37	869
1686.62	864
1684.87	873
1683.12	807
1681.36	888.5
1679.61	848
1677.86	884.5
1676.1	871.5
1674.35	904.5
1672.59	867
1670.84	916
1669.08	834.5
1667.33	916.5
1665.57	876
1663.81	900
1662.06	916
1660.3	905.5
1658.54	872.5
1656.78	892.5
1655.02	910.5
1653.26	902
1651.5	877
1649.74	898
1647.98	871
1646.22	878
1644.46	865.5
1642.7	850.5
1640.93	889.5
1639.17	867
1637.41	848
1635.64	845
1633.88	831
1632.11	858.5
1630.35	830
1628.58	855.5
1626.81	838
1625.05	825
1623.28	811
1621.51	810
1619.75	822
1617.98	859.5
1616.21	851
1614.44	799.5
1612.67	856.5
1610.9	827.5
1609.13	817.5
1607.36	848
1605.58	818.5
1603.81	816
1602.04	876.5
1600.27	850.5
1598.49	825
1596.72	818.5
1594.95	848.5
1593.17	861
1591.4	818
1589.62	825
1587.84	809
1586.07	813.5
1584.29	793
1582.51	828.5
1580.74	862
1578.96	813
1577.18	860.5
1575.4	821
1573.62	826
1571.84	856.5
1570.06	816
1568.28	839.5
1566.5	811
1564.72	797.5
1562.93	797.5
1561.15	801
1559.37	827.5
1557.58	823
1555.8	803
1554.02	820
1552.23	788
1550.45	845
1548.66	814
1546.87	780
1545.09	812
1543.3	820
1541.51	813.5
1539.72	842
1537.94	805
1536.15	791
1534.36	816
1532.57	823
1530.78	815
1528.99	758.5
1527.2	795
1525.4	795.5
1523.61	801
1521.82	781
1520.03	815
1518.23	791.5
1516.44	768
1514.65	825.5
1512.85	793.5
1511.06	846.5
1509.26	812
1507.46	820
1505.67	808.5
1503.87	804
1502.07	819
1500.28	828
1498.48	831
1496.68	829.5
1494.88	831
1493.08	796
1491.28	782
1489.48	817.5
1487.68	839.5
1485.88	857.5
1484.08	852.5
1482.27	832.5
1480.47	823.5
1478.67	855.5
1476.86	858
1475.06	883.5
1473.25	918
1471.45	930.5
1469.64	883.5
1467.84	928.5
1466.03	937
1464.23	956
1462.42	953
1460.61	1010.5
1458.8	1009
1456.99	966.5
1455.18	967
1453.37	1029
1451.56	1011.5
1449.75	1027
1447.94	957.5
1446.13	1013.5
1444.32	1044
1442.51	1013
1440.7	1018
1438.88	984
1437.07	1003.5
1435.26	965
1433.44	909.5
1431.63	999.5
1429.81	913
1427.99	952.5
1426.18	928.5
1424.36	902.5
1422.54	910.5
1420.73	894.5
1418.91	869
1417.09	918.5
1415.27	891.5
1413.45	876
1411.63	873
1409.81	909.5
1407.99	888.5
1406.17	855
1404.35	863.5
1402.53	864.5
1400.7	847.5
1398.88	882
1397.06	872.5
1395.23	857
1393.41	876.5
1391.58	885
1389.76	862
1387.93	873
1386.11	851
1384.28	912.5
1382.45	875
1380.62	811
1378.8	859.5
1376.97	916
1375.14	866
1373.31	837
1371.48	837.5
1369.65	873
1367.82	871.5
1365.99	842
1364.16	883
1362.32	852
1360.49	863.5
1358.66	901.5
1356.82	885
1354.99	885.5
1353.16	846.5
1351.32	870.5
1349.48	849
1347.65	879.5
1345.81	896
1343.98	918.5
1342.14	854
1340.3	878
1338.46	878
1336.62	887
1334.79	909
1332.95	871.5
1331.11	871.5
1329.27	885
1327.42	881.5
1325.58	908.5
1323.74	902
1321.9	909.5
1320.06	926.5
1318.21	905.5
1316.37	895
1314.53	930
1312.68	913
1310.84	940.5
1308.99	977.5
1307.15	997
1305.3	987.5
1303.45	1010.5
1301.61	998.5
1299.76	994
1297.91	969.5
1296.06	995
1294.21	971
1292.36	950.5
1290.51	935.5
1288.66	960
1286.81	976
1284.96	972
1283.11	955
1281.26	955
1279.4	959
1277.55	975.5
1275.7	949.5
1273.84	982.5
1271.99	946.5
1270.13	940.5
1268.28	987.5
1266.42	998
1264.56	963
1262.71	972
1260.85	947.5
1258.99	971.5
1257.13	941
1255.27	937.5
1253.41	979
1251.56	953
1249.7	934.5
1247.83	951
1245.97	938.5
1244.11	932.5
1242.25	959
1240.39	955
1238.52	939
1236.66	968.5
1234.8	935.5
1232.93	932.5
1231.07	929
1229.2	941
1227.34	917
1225.47	894.5
1223.6	953.5
1221.74	890.5
1219.87	909.5
1218	942.5
1216.13	923
1214.26	930
1212.39	915.5
1210.53	910
1208.65	907
1206.78	924
1204.91	933.5
1203.04	903
1201.17	922
1199.3	942.5
1197.42	937.5
1195.55	939.5
1193.68	917.5
1191.8	925.5
1189.93	915.5
1188.05	926.5
1186.17	945.5
1184.3	919.5
1182.42	950.5
1180.54	915.5
1178.67	921
1176.79	940
1174.91	944.5
1173.03	927.5
1171.15	934
1169.27	933
1167.39	927
1165.51	939.5
1163.63	911.5
1161.75	978
1159.86	990
1157.98	948
1156.1	947.5
1154.21	938.5
1152.33	955
1150.44	935
1148.56	926
1146.67	964
1144.79	944
1142.9	948
1141.01	939
1139.12	934
1137.24	942.5
1135.35	985.5
1133.46	946
1131.57	986.5
1129.68	986
1127.79	954.5
1125.9	952.5
1124.01	1000.5
1122.12	983.5
1120.22	1007
1118.33	974.5
1116.44	974.5
1114.54	980.5
1112.65	1011.5
1110.75	1007
1108.86	991.5
1106.96	1012.5
1105.07	997
1103.17	1007
1101.27	1016
1099.38	1035
1097.48	1000
1095.58	1050.5
1093.68	1049.5
1091.78	1060
1089.88	1044
1087.98	1039.5
1086.08	1013.5
1084.18	1052
1082.28	1088.5
1080.38	1054
1078.47	1050.5
1076.57	1060
1074.67	1023
1072.76	1060.5
1070.86	1049
1068.95	1036.5
1067.05	1043
1065.14	1098
1063.24	1076
1061.33	1073.5
1059.42	1080.5
1057.51	1042
1055.6	1063
1053.7	1098.5
1051.79	1062.5
1049.88	1112
1047.97	1104.5
1046.06	1067
1044.14	1072.5
1042.23	1074
1040.32	1065
1038.41	1056.5
1036.5	1112.5
1034.58	1080.5
1032.67	1045
1030.75	1079
1028.84	1127
1026.92	1087.5
1025.01	1097.5
1023.09	1079
1021.17	1030.5
1019.26	1092.5
1017.34	1071.5
1015.42	1094
1013.5	1087.5
1011.58	1081
1009.66	1067.5
1007.74	1075
1005.82	1106
1003.9	1078.5
1001.98	1125.5
1000.06	1112.5
998.134	1102
996.212	1122
994.288	1114.5
992.364	1127.5
990.44	1132.5
988.515	1166.5
986.589	1171.5
984.663	1165.5
982.737	1169.5
980.81	1148
978.883	1207
976.955	1251
975.027	1193.5
973.098	1209.5
971.169	1254
969.239	1207.5
967.308	1190.5
965.378	1260.5
963.447	1233
961.516	1243
959.583	1278.5
957.65	1222.5
955.718	1281.5
953.784	1277.5
951.85	1263
949.916	1272.5
947.981	1290.5
946.045	1261
944.109	1300
942.173	1311
940.236	1328
938.298	1330.5
936.36	1302.5
934.422	1302.5
932.484	1264.5
930.544	1262.5
928.604	1225
926.664	1242
924.724	1247
922.782	1209.5
920.84	1241.5
918.898	1217.5
916.955	1258
915.012	1230.5
913.068	1248.5
911.124	1219
909.18	1212.5
907.235	1211
905.289	1191
903.343	1242
901.397	1264.5
899.45	1251.5
897.502	1257
895.554	1252.5
893.605	1239.5
891.657	1263.5
889.707	1295
887.758	1268
885.807	1264.5
883.856	1312.5
881.905	1315.5
879.953	1265.5
878.001	1295.5
876.048	1320.5
874.094	1305.5
872.14	1320
870.186	1293
868.232	1327
866.276	1312
864.321	1329.5
862.365	1318
860.408	1340.5
858.451	1329.5
856.493	1358.5
854.535	1321
852.576	1324
850.617	1280
848.658	1300.5
846.698	1332.5
844.737	1325.5
842.776	1325
840.814	1288.5
838.852	1327.5
836.89	1288
834.927	1361
832.963	1325
830.999	1335
829.035	1274.5
827.07	1303.5
825.105	1298.5
823.139	1326
821.172	1294.5
819.206	1273
817.238	1304.5
815.27	1288
813.301	1288.5
811.333	1297.5
809.363	1301.5
807.394	1284.5
805.424	1257.5
803.453	1270.5
801.482	1243.5
799.509	1265.5
797.538	1267
795.565	1224
793.592	1283
791.618	1247.5
789.643	1246.5
787.669	1263
785.693	1277.5
783.718	1288.5
781.742	1304.5
779.765	1279.5
777.788	1259
775.811	1241.5
773.832	1265.5
771.853	1300.5
769.875	1293.5
767.895	1281
765.915	1271.5
763.934	1286
761.953	1211
759.972	1264
757.99	1289
756.007	1268
754.024	1296.5
752.041	1295.5
750.056	1241.5
748.072	1291.5
746.087	1316.5
744.102	1278
742.116	1254
740.13	1302
738.143	1283.5
736.155	1315
734.167	1317.5
732.179	1296
730.19	1314
728.2	1269.5
726.21	1317
724.22	1304.5
722.229	1315
720.237	1315.5
718.246	1310
716.253	1336.5
714.26	1289
712.267	1317
710.273	1351.5
708.279	1330.5
706.284	1329.5
704.289	1290
702.293	1307
700.296	1342.5
698.3	1307.5
696.303	1342.5
694.305	1318.5
692.307	1339
690.307	1293.5
688.308	1334.5
686.309	1313
684.308	1360
682.308	1369
680.306	1340.5
678.304	1422.5
676.302	1351.5
674.3	1369.5
672.296	1369.5
670.293	1406.5
668.289	1353
666.284	1373
664.278	1393.5
662.273	1369.5
660.266	1408.5
658.26	1387.5
656.252	1396
654.244	1396.5
652.237	1447.5
650.227	1394
648.218	1365.5
646.209	1441
644.198	1384
642.188	1392
640.177	1429.5
638.165	1431.5
636.153	1420.5
634.14	1410.5
632.128	1468.5
630.113	1448
628.099	1452
626.085	1478
624.07	1406.5
622.054	1460.5
620.038	1435
618.021	1466.5
616.004	1479.5
613.986	1432
611.968	1448.5
609.949	1476
607.93	1454
605.911	1488
603.891	1451
601.87	1494.5
599.848	1478
597.827	1431.5
595.805	1452.5
593.782	1471.5
591.759	1494.5
589.735	1499
587.711	1479
585.687	1461.5
583.661	1539.5
581.636	1471.5
579.609	1503.5
577.583	1451.5
575.555	1537
573.527	1455
571.5	1488
569.471	1533
567.441	1523
565.412	1533.5
563.382	1588
561.351	1557.5
559.32	1537
557.289	1582.5
555.257	1510
553.223	1594.5
551.19	1612
549.157	1565.5
547.122	1585
545.088	1603.5
543.053	1658.5
541.017	1712
538.981	1728.5
536.943	1774.5
534.907	1898
532.869	1997
530.831	2217.5
528.792	2621.5
526.752	3364.5
524.713	4412
522.673	5542
520.632	5868.5
518.591	5169
516.549	4159.5
514.507	3270.5
512.464	2574.5
510.42	2176.5
508.377	1951.5
506.332	1846.5
504.288	1744.5
502.242	1727.5
500.196	1711.5
498.15	1673
496.104	1697
494.056	1656
492.008	1607
489.96	1678
487.911	1696.5
485.862	1630
483.812	1615.5
481.761	1624.5
479.71	1616.5
477.659	1629.5
475.607	1604
473.555	1619
471.502	1629.5
469.448	1639
467.395	1657.5
465.34	1621
463.285	1641
461.23	1622
459.174	1598
457.118	1598
455.061	1635
453.003	1661.5
450.945	1653.5
448.887	1654.5
446.828	1646
444.768	1665
442.708	1639.5
440.647	1671
438.587	1722.5
436.525	1664
434.463	1673.5
432.4	1716
430.337	1690.5
428.274	1738.5
426.21	1666
424.145	1747
422.079	1683.5
420.014	1650.5
417.948	1700
415.882	1699.5
413.814	1677
411.746	1707
409.679	1699
407.609	1667.5
405.54	1709.5
403.47	1679.5
401.401	1732.5
399.329	1726.5
397.258	1715
395.187	1695
393.114	1751.5
391.041	1705.5
388.968	1704.5
386.895	1736.5
384.82	1756.5
382.745	1749
380.67	1710
378.594	1766.5
376.517	1739
374.44	1724.5
372.363	1705
370.286	1719
368.207	1741.5
366.128	1753
364.049	1720.5
361.969	1750.5
359.888	1762.5
357.807	1744.5
355.725	1756
353.643	1761
351.561	1746.5
349.477	1764.5
347.394	1829
345.31	1804.5
343.226	1748.5
341.141	1751
339.055	1806
336.968	1827.5
334.882	1784.5
332.795	1797
330.707	1828
328.618	1864.5
326.53	1825.5
324.44	1848
322.351	1859
320.26	1862
318.17	1876.5
316.078	1899
313.987	1928.5
311.895	1965
309.802	1999.5
307.708	1979.5
305.614	1976
303.52	1967.5
301.425	2014
299.329	1914
297.233	1944
295.137	1916
293.039	1915.5
290.942	1898
288.844	1885.5
286.745	1903
284.647	1885.5
282.546	1879
280.446	1883.5
278.346	1854
276.245	1899.5
274.143	1884.5
272.041	1841.5
269.939	1936
267.835	1879.5
265.731	1896.5
263.627	1842.5
261.522	1868
259.417	1871
257.311	1894
255.204	1901.5
253.098	1896
250.99	1893.5
248.882	1862
246.774	1885.5
244.664	1902
242.555	1879.5
240.445	1908.5
238.334	1906.5
236.223	1879.5
234.112	1910.5
232	1898.5
229.888	1915.5
227.775	1919
225.661	1960.5
223.546	1931.5
221.431	1962
219.316	1953
217.201	1888.5
215.084	1952.5
212.967	1982.5
210.85	1948.5
208.732	1908.5
206.614	1943
204.495	1937.5
202.375	1965.5
200.256	1945.5
198.135	1940.5
196.014	1931.5
193.893	1925
191.771	1927.5
189.648	1967
187.525	1980
185.401	1968
183.277	1945
181.152	1953.5
179.027	1949
176.901	1963
174.775	1927
172.648	1971.5
170.521	1980
168.393	1961.5
166.265	2017.5
164.136	1964
162.007	2058
159.876	2024.5
157.746	2031
155.615	2052
153.483	2011.5
151.351	2064
149.219	2052
147.086	2158.5
144.952	2134
142.818	2213.5
140.684	2263
138.548	2197.5
136.413	2262
134.276	2281.5
132.139	2345
130.002	2382
127.864	2375.5
125.725	2475.5
123.587	2481
121.447	2529.5
119.307	2550
117.166	2632
115.026	2601.5
112.885	2594
110.743	2659
108.6	2712
106.456	2766
104.313	2731
102.169	2692
100.023	2632
97.8789	2474
95.7328	2229.5
93.5869	1977.5
91.4392	1672.5
89.2919	1417.5
87.1447	1112.5
84.9959	879.5
