3528.51	105
3527.23	102
3525.95	75
3524.67	99.5
3523.39	122
3522.1	100
3520.82	108.5
3519.54	115.5
3518.26	117.5
3516.97	117
3515.69	117.5
3514.4	124.5
3513.12	82
3511.84	133
3510.55	115
3509.26	117.5
3507.98	116.5
3506.69	113.5
3505.41	119.5
3504.12	95
3502.83	118
3501.54	141
3500.26	124
3498.97	108.5
3497.68	147.5
3496.39	131
3495.1	132
3493.81	100
3492.52	139
3491.23	144.5
3489.94	112.5
3488.65	156.5
3487.36	120
3486.07	132.5
3484.78	124.5
3483.49	119
3482.19	143.5
3480.9	142
3479.61	156.5
3478.31	167.5
3477.02	148.5
3475.73	154
3474.43	153
3473.14	144.5
3471.84	157
3470.54	180
3469.25	151
3467.95	129
3466.66	159
3465.36	149
3464.06	168
3462.76	152.5
3461.46	173
3460.17	151
3458.87	163.5
3457.57	168
3456.27	177
3454.97	161.5
3453.67	148
3452.37	163
3451.07	189.5
3449.77	174
3448.47	168.5
3447.16	166
3445.86	183.5
3444.56	187
3443.26	198.5
3441.95	174
3440.65	186
3439.35	196.5
3438.04	171.5
3436.74	206
3435.43	208
3434.13	215
3432.82	216.5
3431.52	208.5
3430.21	219
3428.9	230
3427.6	225
3426.29	249
3424.98	236
3423.67	244
3422.36	229
3421.06	230.5
3419.75	212
3418.44	249
3417.13	262
3415.82	244
3414.51	263
3413.2	249
3411.88	274
3410.57	260
3409.26	244
3407.95	268.5
3406.64	276
3405.32	256
3404.01	260
3402.7	306
3401.38	284.5
3400.07	282.5
3398.75	277
3397.44	303
3396.12	295.5
3394.81	268
3393.49	271.5
3392.18	262.5
3390.86	310.5
3389.54	289
3388.23	303.5
3386.91	301.5
3385.59	321
3384.27	290
3382.95	312
3381.63	296
3380.31	322.5
3378.99	324
3377.67	327.5
3376.35	335.5
3375.03	317.5
3373.71	352.5
3372.39	294
3371.07	339.5
3369.75	352
3368.42	339.5
3367.1	363
3365.78	376
3364.45	352.5
3363.13	352.5
3361.81	344
3360.48	379
3359.16	372.5
3357.83	336
3356.51	413.5
3355.18	334
3353.85	375
3352.53	370
3351.2	361.5
3349.87	362
3348.54	371
3347.22	363
3345.89	386
3344.56	388.5
3343.23	405
3341.9	385
3340.57	398.5
3339.24	386
3337.91	382.5
3336.58	396
3335.25	412.5
3333.92	359.5
3332.58	379.5
3331.25	388
3329.92	366.5
3328.59	391
3327.25	379.5
3325.92	390.5
3324.58	409.5
3323.25	417.5
3321.92	394.5
3320.58	417
3319.25	412.5
3317.91	411
3316.57	402
3315.24	404.5
3313.9	431.5
3312.56	388
3311.23	414
3309.89	437
3308.55	394.5
3307.21	426
3305.87	439
3304.53	393
3303.19	436
3301.85	465.5
3300.51	421
3299.17	449
3297.83	445
3296.49	447
3295.15	449
3293.81	467
3292.46	439
3291.12	437
3289.78	432
3288.43	454.5
3287.09	434
3285.75	448.5
3284.4	443.5
3283.06	464
3281.71	452.5
3280.37	455.5
3279.02	449
3277.67	431.5
3276.33	464
3274.98	457.5
3273.63	473
3272.28	455.5
3270.94	464.5
3269.59	492
3268.24	440.5
3266.89	485.5
3265.54	482
3264.19	481
3262.84	465
3261.49	496
3260.14	481.5
3258.79	488.5
3257.44	522
3256.08	495
3254.73	534
3253.38	518
3252.03	539
3250.67	508
3249.32	531
3247.96	557
3246.61	587.5
3245.26	567
3243.9	600
3242.54	567.5
3241.19	637
3239.83	671.5
3238.48	655
3237.12	693.5
3235.76	701
3234.41	701.5
3233.05	693.5
3231.69	702
3230.33	766.5
3228.97	775
3227.61	789
3226.25	788.5
3224.89	839.5
3223.53	823
3222.17	868
3220.81	878
3219.45	916.5
3218.09	918
3216.72	909
3215.36	929.5
3214	965
3212.63	989
3211.27	979
3209.91	1004.5
3208.54	1030.5
3207.18	1004.5
3205.81	1038
3204.45	1030.5
3203.08	1023
3201.71	1035
3200.35	1028
3198.98	1053
3197.61	1064
3196.25	1076
3194.88	1049
3193.51	1073
3192.14	1083.5
3190.77	1068.5
3189.4	1083.5
3188.03	1098
3186.66	1111.5
3185.29	1115
3183.92	1067
3182.55	1129
3181.18	1101.5
3179.81	1128.5
3178.44	1135.5
3177.06	1100.5
3175.69	1141
3174.32	1162
3172.94	1162.5
3171.57	1170.5
3170.2	1127.5
3168.82	1173.5
3167.45	1181
3166.07	1196
3164.69	1241
3163.32	1223
3161.94	1221.5
3160.56	1226
3159.19	1191.5
3157.81	1193
3156.43	1275
3155.05	1288.5
3153.67	1303
3152.3	1300
3150.92	1304.5
3149.54	1325.5
3148.16	1308
3146.78	1344.5
3145.4	1290
3144.01	1336.5
3142.63	1332
3141.25	1384
3139.87	1411.5
3138.49	1378
3137.1	1437.5
3135.72	1388.5
3134.34	1407.5
3132.95	1403.5
3131.57	1456.5
3130.18	1441
3128.8	1461.5
3127.41	1454
3126.03	1498
3124.64	1503
3123.25	1466.5
3121.87	1500.5
3120.48	1469
3119.09	1496.5
3117.7	1523
3116.32	1581.5
3114.93	1516
3113.54	1523
3112.15	1542
3110.76	1551
3109.37	1582
3107.98	1537
3106.59	1578
3105.2	1612
3103.8	1610.5
3102.41	1568.5
3101.02	1631
3099.63	1618.5
3098.23	1624.5
3096.84	1656.5
3095.45	1618
3094.05	1677
3092.66	1656.5
3091.26	1630
3089.87	1652
3088.47	1662
3087.08	1694
3085.68	1739.5
3084.28	1688.5
3082.89	1651.5
3081.49	1734.5
3080.09	1696
3078.69	1728.5
3077.3	1757.5
3075.9	1767
3074.5	1732
3073.1	1719.5
3071.7	1728.5
3070.3	1699
3068.9	1761
3067.5	1787
3066.09	1728.5
3064.69	1780.5
3063.29	1763
3061.89	1801
3060.48	1782
3059.08	1809.5
3057.68	1788.5
3056.27	1797
3054.87	1810.5
3053.46	1770.5
3052.06	1774.5
3050.65	1783
3049.25	1792.5
3047.84	1805
3046.44	1824.5
3045.03	1818
3043.62	1836.5
3042.21	1856.5
3040.81	1846.5
3039.4	1877
3037.99	1821.5
3036.58	1830.5
3035.17	1853.5
3033.76	1872.5
3032.35	1876
3030.94	1886.5
3029.53	1864.5
3028.12	1843.5
3026.71	1904.5
3025.29	1894
3023.88	1856
3022.47	1896
3021.06	1939.5
3019.64	1845.5
3018.23	1875
3016.82	1887.5
3015.4	1879.5
3013.99	1880.5
3012.57	1915.5
3011.15	1936
3009.74	1953.5
3008.32	1921.5
3006.91	1954
3005.49	1940
3004.07	1930.5
3002.65	1876
3001.24	1950.5
2999.82	1940
2998.4	1977
2996.98	1925.5
2995.56	1940
2994.14	1955.5
2992.72	1962.5
2991.3	1964.5
2989.88	1948
2988.46	2006.5
2987.03	2035
2985.61	2021
2984.19	2018
2982.77	1970.5
2981.34	2055
2979.92	2024.5
2978.49	2034
2977.07	2072
2975.65	2073
2974.22	2066.5
2972.79	2058
2971.37	2102
2969.94	2140.5
2968.52	2135.5
2967.09	2157
2965.66	2142
2964.23	2124
2962.81	2137.5
2961.38	2200
2959.95	2160.5
2958.52	2160
2957.09	2124
2955.66	2162.5
2954.23	2113
2952.8	2120.5
2951.37	2188.5
2949.94	2160
2948.5	2222.5
2947.07	2196.5
2945.64	2179
2944.21	2191.5
2942.77	2168.5
2941.34	2170
2939.91	2205
2938.47	2230
2937.04	2228.5
2935.6	2219
2934.17	2213.5
2932.73	2260.5
2931.29	2249.5
2929.86	2260
2928.42	2283.5
2926.98	2258.5
2925.55	2284
2924.11	2271
2922.67	2303.5
2921.23	2314.5
2919.79	2291
2918.35	2268.5
2916.91	2249
2915.47	2287
2914.03	2275
2912.59	2277
2911.15	2333
2909.71	2263
2908.26	2257.5
2906.82	2289
2905.38	2299.5
2903.94	2264
2902.49	2301.5
2901.05	2298
2899.6	2314.5
2898.16	2327.5
2896.71	2311
2895.27	2295
2893.82	2326
2892.38	2307.5
2890.93	2300
2889.48	2285.5
2888.03	2340
2886.59	2340
2885.14	2296.5
2883.69	2304
2882.24	2298.5
2880.79	2328
2879.34	2282
2877.89	2304
2876.44	2342.5
2874.99	2360.5
2873.54	2296.5
2872.09	2299.5
2870.64	2303
2869.18	2295.5
2867.73	2314.5
2866.28	2322
2864.83	2313
2863.37	2336.5
2861.92	2332.5
2860.46	2354.5
2859.01	2353
2857.55	2308.5
2856.1	2355.5
2854.64	2334
2853.19	2385
2851.73	2382
2850.27	2373.5
2848.81	2365.5
2847.36	2402
2845.9	2383.5
2844.44	2421.5
2842.98	2370.5
2841.52	2387.5
2840.06	2373
2838.6	2413.5
2837.14	2405
2835.68	2397
2834.22	2422
2832.76	2352.5
2831.3	2385
2829.83	2414.5
2828.37	2359.5
2826.91	2375
2825.44	2408
2823.98	2423
2822.52	2377
2821.05	2397.5
2819.59	2385.5
2818.12	2363.5
2816.66	2406.5
2815.19	2354
2813.72	2332
2812.26	2389
2810.79	2378.5
2809.32	2367
2807.85	2336.5
2806.38	2394
2804.92	2390.5
2803.45	2372
2801.98	2364.5
2800.51	2355.5
2799.04	2336
2797.57	2395.5
2796.1	2341
2794.62	2353.5
2793.15	2368.5
2791.68	2334
2790.21	2278.5
2788.73	2317.5
2787.26	2284.5
2785.79	2342.5
2784.31	2281
2782.84	2343.5
2781.36	2323.5
2779.89	2272.5
2778.41	2372.5
2776.94	2341.5
2775.46	2304.5
2773.99	2283.5
2772.51	2338.5
2771.03	2312.5
2769.55	2317.5
2768.07	2342
2766.6	2332
2765.12	2325
2763.64	2377.5
2762.16	2348.5
2760.68	2326
2759.2	2279.5
2757.72	2322
2756.24	2293
2754.75	2330
2753.27	2289
2751.79	2296.5
2750.31	2317
2748.82	2265
2747.34	2327.5
2745.86	2314
2744.37	2349.5
2742.89	2315
2741.4	2322
2739.92	2344.5
2738.43	2273
2736.94	2304
2735.46	2301.5
2733.97	2295.5
2732.48	2296.5
2731	2265.5
2729.51	2291.5
2728.02	2355
2726.53	2353
2725.04	2321.5
2723.55	2317
2722.06	2329.5
2720.57	2295
2719.08	2341.5
2717.59	2287
2716.1	2274
2714.61	2348
2713.11	2317
2711.62	2292.5
2710.13	2317.5
2708.64	2312
2707.14	2331
2705.65	2300
2704.15	2246
2702.66	2243
2701.16	2271.5
2699.67	2226.5
2698.17	2286
2696.67	2230
2695.18	2258.5
2693.68	2198.5
2692.18	2243
2690.69	2268
2689.19	2248.5
2687.69	2220.5
2686.19	2227.5
2684.69	2224.5
2683.19	2211
2681.69	2258.5
2680.19	2250
2678.69	2209.5
2677.19	2206.5
2675.68	2217
2674.18	2217.5
2672.68	2221.5
2671.18	2200
2669.67	2236
2668.17	2211.5
2666.66	2229.5
2665.16	2195
2663.66	2231.5
2662.15	2183
2660.64	2182.5
2659.14	2206
2657.63	2200.5
2656.13	2163
2654.62	2204.5
2653.11	2187.5
2651.6	2198
2650.09	2192.5
2648.58	2187
2647.08	2227.5
2645.57	2153.5
2644.06	2186
2642.55	2189
2641.04	2175
2639.52	2206
2638.01	2145
2636.5	2115.5
2634.99	2135
2633.48	2140.5
2631.96	2153
2630.45	2108
2628.94	2101.5
2627.42	2129.5
2625.91	2107.5
2624.39	2164.5
2622.88	2096.5
2621.36	2138.5
2619.85	2133
2618.33	2093
2616.81	2183
2615.3	2116.5
2613.78	2093.5
2612.26	2135
2610.74	2103
2609.22	2110.5
2607.7	2117.5
2606.18	2090
2604.66	2094
2603.14	2066
2601.62	2063
2600.1	2027.5
2598.58	2110.5
2597.06	2079
2595.54	2075
2594.01	2096.5
2592.49	2075.5
2590.97	2057
2589.44	2092
2587.92	2072.5
2586.39	2087.5
2584.87	2064.5
2583.34	2076.5
2581.82	2029.5
2580.29	2039.5
2578.76	2018
2577.24	1999.5
2575.71	2001
2574.18	2068.5
2572.65	1999
2571.13	1998.5
2569.6	2036
2568.07	1985
2566.54	2013.5
2565.01	1982
2563.48	1984
2561.95	1982.5
2560.42	1972
2558.88	1971.5
2557.35	1990
2555.82	1955.5
2554.29	1974.5
2552.75	1938.5
2551.22	1959.5
2549.69	1957.5
2548.15	1947
2546.62	1936
2545.08	1975.5
2543.55	1960
2542.01	1946.5
2540.47	1938
2538.94	1911.5
2537.4	1911.5
2535.86	1932.5
2534.33	1912
2532.79	1846
2531.25	1883
2529.71	1895
2528.17	1849
2526.63	1906.5
2525.09	1923.5
2523.55	1828.5
2522.01	1857.5
2520.47	1857
2518.92	1793.5
2517.38	1836
2515.84	1847
2514.3	1832.5
2512.75	1798.5
2511.21	1814
2509.67	1841
2508.12	1817.5
2506.58	1815
2505.03	1799.5
2503.49	1784
2501.94	1782
2500.39	1793.5
2498.85	1794.5
2497.3	1743.5
2495.75	1801
2494.2	1787
2492.65	1758
2491.11	1785.5
2489.56	1755.5
2488.01	1706.5
2486.46	1725.5
2484.91	1726
2483.36	1715.5
2481.8	1757
2480.25	1739.5
2478.7	1730
2477.15	1733
2475.6	1714.5
2474.04	1693
2472.49	1744
2470.93	1691.5
2469.38	1666.5
2467.83	1691
2466.27	1748.5
2464.71	1649.5
2463.16	1698.5
2461.6	1720
2460.05	1612.5
2458.49	1663.5
2456.93	1614.5
2455.37	1619
2453.81	1642.5
2452.26	1614
2450.7	1621.5
2449.14	1614
2447.58	1577.5
2446.02	1585.5
2444.46	1616
2442.9	1609
2441.33	1578.5
2439.77	1615.5
2438.21	1568
2436.65	1556
2435.08	1583.5
2433.52	1578
2431.96	1605.5
2430.39	1594
2428.83	1571.5
2427.26	1550.5
2425.7	1583
2424.13	1560
2422.56	1583
2421	1529
2419.43	1537
2417.86	1546.5
2416.3	1493
2414.73	1527.5
2413.16	1507.5
2411.59	1467.5
2410.02	1502
2408.45	1486.5
2406.88	1502.5
2405.31	1486.5
2403.74	1507
2402.17	1519.5
2400.6	1493
2399.02	1516
2397.45	1446.5
2395.88	1448.5
2394.3	1460.5
2392.73	1460
2391.16	1445
2389.58	1438.5
2388.01	1480.5
2386.43	1472
2384.86	1459
2383.28	1432.5
2381.7	1418
2380.13	1450.5
2378.55	1442.5
2376.97	1393.5
2375.39	1411.5
2373.81	1448.5
2372.23	1440
2370.65	1442.5
2369.07	1412.5
2367.49	1410
2365.91	1416.5
2364.33	1436.5
2362.75	1411
2361.17	1414.5
2359.59	1384.5
2358.01	1422.5
2356.42	1404.5
2354.84	1336
2353.25	1421.5
2351.67	1385
2350.09	1398.5
2348.5	1351
2346.92	1378
2345.33	1344.5
2343.74	1391
2342.16	1402
2340.57	1357
2338.98	1340
2337.39	1388.5
2335.81	1359
2334.22	1319.5
2332.63	1372.5
2331.04	1347
2329.45	1340.5
2327.86	1376
2326.27	1351
2324.68	1348.5
2323.09	1353.5
2321.49	1314
2319.9	1292.5
2318.31	1333
2316.72	1338.5
2315.12	1342.5
2313.53	1295.5
2311.93	1307
2310.34	1315
2308.74	1283.5
2307.15	1273.5
2305.55	1267.5
2303.96	1293.5
2302.36	1304
2300.76	1278
2299.17	1297.5
2297.57	1256.5
2295.97	1282
2294.37	1276
2292.77	1251
2291.17	1278
2289.57	1213
2287.97	1216.5
2286.37	1257
2284.77	1265
2283.17	1188.5
2281.57	1248.5
2279.96	1225
2278.36	1205.5
2276.76	1183.5
2275.15	1186.5
2273.55	1168
2271.95	1146.5
2270.34	1155.5
2268.74	1163
2267.13	1167.5
2265.52	1167.5
2263.92	1156
2262.31	1120.5
2260.7	1122
2259.1	1142.5
2257.49	1132.5
2255.88	1120
2254.27	1185
2252.66	1100.5
2251.05	1115
2249.44	1126
2247.83	1137
2246.22	1126.5
2244.61	1128
2243	1119
2241.39	1137
2239.77	1120.5
2238.16	1111.5
2236.55	1086
2234.93	1110
2233.32	1053
2231.7	1053
2230.09	1083
2228.47	1049
2226.86	1078
2225.24	1046.5
2223.63	1024.5
2222.01	1051
2220.39	1075.5
2218.77	1043.5
2217.16	1049
2215.54	1056
2213.92	1045
2212.3	1046.5
2210.68	1076.5
2209.06	1040
2207.44	1048
2205.82	1046
2204.19	1022.5
2202.57	1026
2200.95	1025
2199.33	1049.5
2197.7	1023.5
2196.08	1028
2194.46	1001
2192.83	1010.5
2191.21	992
2189.58	988.5
2187.96	988
2186.33	1010
2184.7	1000.5
2183.08	993
2181.45	960
2179.82	999.5
2178.19	1017
2176.57	982.5
2174.94	957.5
2173.31	991
2171.68	996
2170.05	946
2168.42	984.5
2166.79	957
2165.16	1009.5
2163.52	962
2161.89	924
2160.26	934
2158.63	978.5
2156.99	947.5
2155.36	931
2153.73	963.5
2152.09	916.5
2150.46	910
2148.82	934
2147.18	929.5
2145.55	908
2143.91	891
2142.27	885.5
2140.64	916.5
2139	912.5
2137.36	907.5
2135.72	894
2134.08	924.5
2132.44	841.5
2130.8	913
2129.16	837
2127.52	887.5
2125.88	866.5
2124.24	899.5
2122.6	841.5
2120.95	834.5
2119.31	855
2117.67	857
2116.02	820
2114.38	824.5
2112.74	871.5
2111.09	859
2109.45	828
2107.8	853.5
2106.15	871
2104.51	829.5
2102.86	824
2101.21	808
2099.56	825.5
2097.92	792
2096.27	817
2094.62	794
2092.97	782
2091.32	825
2089.67	794.5
2088.02	820
2086.37	831
2084.72	796
2083.06	829.5
2081.41	788.5
2079.76	789.5
2078.1	779.5
2076.45	782.5
2074.8	753
2073.14	781
2071.49	759
2069.83	782
2068.18	794.5
2066.52	760.5
2064.86	797
2063.21	789
2061.55	777
2059.89	745
2058.23	742.5
2056.57	771
2054.92	738
2053.26	781.5
2051.6	720
2049.94	748
2048.27	744.5
2046.61	736.5
2044.95	744.5
2043.29	751.5
2041.63	760.5
2039.97	738
2038.3	719.5
2036.64	713
2034.97	749
2033.31	725
2031.64	704.5
2029.98	694.5
2028.31	691
2026.65	723.5
2024.98	687.5
2023.31	719
2021.65	700.5
2019.98	716
2018.31	721
2016.64	687.5
2014.97	673.5
2013.3	668
2011.63	668
2009.96	671.5
2008.29	674.5
2006.62	697
2004.95	674
2003.28	666.5
2001.6	681
1999.93	696.5
1998.26	664.5
1996.58	680.5
1994.91	662.5
1993.24	660
1991.56	620
1989.89	640
1988.21	685
1986.53	643
1984.86	649
1983.18	660.5
1981.5	655
1979.82	651.5
1978.15	669
1976.47	637
1974.79	636
1973.11	646
1971.43	643
1969.75	613
1968.07	640
1966.38	634
1964.7	652
1963.02	616.5
1961.34	629
1959.66	607
1957.97	626
1956.29	657.5
1954.6	600.5
1952.92	598
1951.23	600
1949.55	593
1947.86	621
1946.18	613.5
1944.49	606
1942.8	614.5
1941.11	600.5
1939.43	630
1937.74	609.5
1936.05	609.5
1934.36	562
1932.67	587
1930.98	619
1929.29	582.5
1927.6	583
1925.91	567
1924.21	564.5
1922.52	563.5
1920.83	564.5
1919.14	596.5
1917.44	546
1915.75	563
1914.05	559.5
1912.36	559
1910.66	557.5
1908.97	528.5
1907.27	517
1905.58	500.5
1903.88	524
1902.18	524
1900.48	507
1898.79	549
1897.09	526.5
1895.39	523.5
1893.69	551.5
1891.99	529
1890.29	518
1888.59	532
1886.89	524.5
1885.18	506.5
1883.48	484
1881.78	504.5
1880.08	507.5
1878.37	474
1876.67	513
1874.96	503.5
1873.26	487
1871.55	530
1869.85	493.5
1868.14	477
1866.44	485.5
1864.73	519
1863.02	465.5
1861.32	493
1859.61	493.5
1857.9	469
1856.19	483.5
1854.48	466.5
1852.77	488.5
1851.06	432
1849.35	456.5
1847.64	491
1845.93	473.5
1844.21	450.5
1842.5	444
1840.79	480.5
1839.08	481
1837.36	474
1835.65	473
1833.93	474
1832.22	437
1830.5	433
1828.79	432.5
1827.07	452.5
1825.36	450
1823.64	432.5
1821.92	429.5
1820.2	455
1818.48	437
1816.77	440.5
1815.05	416
1813.33	429
1811.61	416
1809.89	418.5
1808.16	413
1806.44	418.5
1804.72	420.5
1803	418
1801.28	415.5
1799.55	430
1797.83	405.5
1796.11	391.5
1794.38	393.5
1792.66	405
1790.93	407.5
1789.21	396.5
1787.48	401.5
1785.75	374
1784.03	399
1782.3	409
1780.57	379
1778.84	394
1777.11	390
1775.38	376.5
1773.66	399.5
1771.93	372
1770.19	356
1768.46	380.5
1766.73	369
1765	407
1763.27	407.5
1761.54	372.5
1759.8	388.5
1758.07	375.5
1756.34	386
1754.6	356
1752.87	365
1751.13	392.5
1749.4	363.5
1747.66	378.5
1745.92	355.5
1744.19	369
1742.45	356.5
1740.71	380.5
1738.97	374.5
1737.23	368.5
1735.49	382.5
1733.75	374
1732.01	382
1730.27	376
1728.53	358.5
1726.79	362
1725.05	366
1723.31	351
1721.57	353.5
1719.82	373
1718.08	342.5
1716.34	351
1714.59	353
1712.85	325.5
1711.1	359.5
1709.36	361
1707.61	334
1705.86	341.5
1704.12	370.5
1702.37	347
1700.62	346.5
1698.87	350.5
1697.12	330
1695.37	354.5
1693.62	308
1691.87	323
1690.12	342
1688.37	343.5
1686.62	303
1684.87	342
1683.12	332.5
1681.36	319
1679.61	306.5
1677.86	293
1676.1	330
1674.35	325
1672.59	328.5
1670.84	304.5
1669.08	317.5
1667.33	324
1665.57	316
1663.81	301
1662.06	310.5
1660.3	310.5
1658.54	294
1656.78	303
1655.02	304.5
1653.26	297
1651.5	323
1649.74	297.5
1647.98	284
1646.22	283
1644.46	295
1642.7	289.5
1640.93	341
1639.17	294
1637.41	304.5
1635.64	289
1633.88	295.5
1632.11	307
1630.35	282
1628.58	310.5
1626.81	279.5
1625.05	292
1623.28	262
1621.51	281
1619.75	274
1617.98	267
1616.21	310.5
1614.44	300
1612.67	265
1610.9	253.5
1609.13	291
1607.36	269.5
1605.58	267.5
1603.81	283
1602.04	306
1600.27	279.5
1598.49	285
1596.72	273.5
1594.95	269
1593.17	265
1591.4	250.5
1589.62	271.5
1587.84	278
1586.07	248
1584.29	261
1582.51	288.5
1580.74	263.5
1578.96	287
1577.18	253
1575.4	284
1573.62	260
1571.84	265.5
1570.06	275
1568.28	266
1566.5	269.5
1564.72	280.5
1562.93	239
1561.15	255
1559.37	277.5
1557.58	293.5
1555.8	289.5
1554.02	276.5
1552.23	258.5
1550.45	280
1548.66	254.5
1546.87	224.5
1545.09	251
1543.3	243.5
1541.51	256
1539.72	245.5
1537.94	212
1536.15	268.5
1534.36	248
1532.57	240
1530.78	249
1528.99	214.5
1527.2	264
1525.4	238.5
1523.61	244
1521.82	242
1520.03	228
1518.23	228
1516.44	210
1514.65	255
1512.85	234
1511.06	245
1509.26	253
1507.46	233.5
1505.67	245.5
1503.87	219
1502.07	252
1500.28	227
1498.48	244
1496.68	240
1494.88	211
1493.08	202
1491.28	209
1489.48	226
1487.68	228.5
1485.88	229
1484.08	238
1482.27	239
1480.47	218
1478.67	245.5
1476.86	218
1475.06	233
1473.25	230.5
1471.45	213.5
1469.64	224
1467.84	241
1466.03	200
1464.23	243
1462.42	213
1460.61	242
1458.8	228
1456.99	213.5
1455.18	204
1453.37	239.5
1451.56	209.5
1449.75	248.5
1447.94	188
1446.13	206
1444.32	232
1442.51	240
1440.7	221
1438.88	220.5
1437.07	212
1435.26	210
1433.44	193
1431.63	242
1429.81	195
1427.99	229.5
1426.18	216
1424.36	210
1422.54	225.5
1420.73	222
1418.91	209.5
1417.09	229
1415.27	210
1413.45	205.5
1411.63	221
1409.81	220
1407.99	212
1406.17	215
1404.35	212
1402.53	223
1400.7	203
1398.88	239
1397.06	199
1395.23	193
1393.41	207
1391.58	190
1389.76	210.5
1387.93	207
1386.11	218.5
1384.28	216
1382.45	203
1380.62	199
1378.8	201.5
1376.97	228.5
1375.14	220
1373.31	212
1371.48	216.5
1369.65	195.5
1367.82	196
1365.99	204.5
1364.16	216
1362.32	183.5
1360.49	208.5
1358.66	206
1356.82	219.5
1354.99	184
1353.16	175.5
1351.32	207
1349.48	185
1347.65	206.5
1345.81	203.5
1343.98	211.5
1342.14	183
1340.3	182.5
1338.46	210.5
1336.62	172.5
1334.79	201
1332.95	194.5
1331.11	160
1329.27	199.5
1327.42	196.5
1325.58	143
1323.74	185
1321.9	190
1320.06	191
1318.21	162
1316.37	191.5
1314.53	160
1312.68	185
1310.84	179
1308.99	159
1307.15	171
1305.3	184
1303.45	166
1301.61	190
1299.76	172
1297.91	172.5
1296.06	194.5
1294.21	157
1292.36	154
1290.51	144
1288.66	180.5
1286.81	173.5
1284.96	168.5
1283.11	175
1281.26	175.5
1279.4	169
1277.55	161.5
1275.7	151
1273.84	177.5
1271.99	160.5
1270.13	174.5
1268.28	153.5
1266.42	162
1264.56	167
1262.71	150.5
1260.85	132.5
1258.99	167
1257.13	152.5
1255.27	152
1253.41	178
1251.56	147.5
1249.7	160
1247.83	172
1245.97	161
1244.11	134.5
1242.25	131
1240.39	150
1238.52	165
1236.66	158
1234.8	140.5
1232.93	164.5
1231.07	137
1229.2	141
1227.34	145
1225.47	143
1223.6	157
1221.74	137.5
1219.87	154
1218	159
1216.13	162
1214.26	145.5
1212.39	153
1210.53	153
1208.65	152
1206.78	143
1204.91	168
1203.04	147
1201.17	148.5
1199.3	160.5
1197.42	153
1195.55	141.5
1193.68	171
1191.8	153.5
1189.93	125
1188.05	136.5
1186.17	160.5
1184.3	155.5
1182.42	150.5
1180.54	147.5
1178.67	141.5
1176.79	164
1174.91	136
1173.03	150
1171.15	153
1169.27	152
1167.39	141.5
1165.51	139.5
1163.63	157
1161.75	163
1159.86	159.5
1157.98	133.5
1156.1	160.5
1154.21	143
1152.33	146.5
1150.44	135.5
1148.56	143
1146.67	152.5
1144.79	169
1142.9	140
1141.01	116.5
1139.12	135
1137.24	136
1135.35	150
1133.46	139
1131.57	129
1129.68	112
1127.79	142.5
1125.9	121
1124.01	145
1122.12	139
1120.22	118
1118.33	144
1116.44	149.5
1114.54	122
1112.65	132.5
1110.75	133.5
1108.86	152.5
1106.96	140
1105.07	138.5
1103.17	156.5
1101.27	136
1099.38	133.5
1097.48	143.5
1095.58	139
1093.68	131
1091.78	118
1089.88	139.5
1087.98	138
1086.08	138
1084.18	149.5
1082.28	132.5
1080.38	141
1078.47	117.5
1076.57	140.5
1074.67	131
1072.76	121.5
1070.86	122
1068.95	132
1067.05	129.5
1065.14	128
1063.24	137.5
1061.33	142
1059.42	141
1057.51	122.5
1055.6	134.5
1053.7	155.5
1051.79	117.5
1049.88	149
1047.97	148.5
1046.06	132
1044.14	126.5
1042.23	125
1040.32	146
1038.41	131.5
1036.5	127
1034.58	161.5
1032.67	139
1030.75	122
1028.84	148
1026.92	122
1025.01	139
1023.09	152.5
1021.17	113.5
1019.26	154.5
1017.34	142.5
1015.42	149.5
1013.5	122.5
1011.58	151.5
1009.66	151
1007.74	129.5
1005.82	132
1003.9	138.5
1001.98	141
1000.06	134.5
998.134	165.5
996.212	153
994.288	145.5
992.364	148
990.44	160.5
988.515	183
986.589	164
984.663	185
982.737	204.5
980.81	167
978.883	201.5
976.955	211.5
975.027	191
973.098	193
971.169	204
969.239	207
967.308	188
965.378	192
963.447	172
961.516	206
959.583	189.5
957.65	196
955.718	212
953.784	254.5
951.85	215
949.916	198.5
947.981	215
946.045	233
944.109	212
942.173	235.5
940.236	230.5
938.298	219.5
936.36	216.5
934.422	215.5
932.484	196.5
930.544	176
928.604	162.5
926.664	151
924.724	148.5
922.782	142.5
920.84	147.5
918.898	133
916.955	125
915.012	131
913.068	152.5
911.124	143.5
909.18	113.5
907.235	118
905.289	129.5
903.343	136.5
901.397	156
899.45	122
897.502	137.5
895.554	150
893.605	89
891.657	131
889.707	111.5
887.758	118
885.807	123
883.856	140
881.905	105
879.953	115
878.001	113.5
876.048	121
874.094	115
872.14	132.5
870.186	115
868.232	120
866.276	142.5
864.321	118
862.365	97
860.408	126.5
858.451	130
856.493	117
854.535	125
852.576	109
850.617	129.5
848.658	114
846.698	139.5
844.737	105
842.776	130.5
840.814	105.5
838.852	125.5
836.89	125
834.927	133
832.963	109
830.999	117
829.035	114
827.07	115
825.105	113.5
823.139	140
821.172	130
819.206	127
817.238	139
815.27	105.5
813.301	114.5
811.333	119
809.363	142
807.394	117
805.424	154
803.453	135
801.482	122
799.509	120
797.538	132
795.565	106
793.592	134
791.618	124
789.643	104
787.669	138
785.693	133
783.718	107
781.742	124
779.765	123.5
777.788	110.5
775.811	101.5
773.832	98
771.853	125.5
769.875	122
767.895	105
765.915	119
763.934	122
761.953	77
759.972	101.5
757.99	117.5
756.007	103
754.024	124.5
752.041	121
750.056	105.5
748.072	96
746.087	131.5
744.102	118
742.116	117.5
740.13	126
738.143	133.5
736.155	105
734.167	118.5
732.179	114.5
730.19	111
728.2	129
726.21	123
724.22	101
722.229	128
720.237	127
718.246	103
716.253	115
714.26	111
712.267	130.5
710.273	128
708.279	110
706.284	127.5
704.289	114.5
702.293	120
700.296	119.5
698.3	111.5
696.303	131
694.305	108
692.307	130
690.307	117
688.308	136.5
686.309	99
684.308	124.5
682.308	116.5
680.306	114
678.304	144
676.302	120
674.3	127
672.296	146
670.293	135
668.289	149
666.284	128
664.278	147.5
662.273	143
660.266	140
658.26	146
656.252	138
654.244	177
652.237	142
650.227	141.5
648.218	142.5
646.209	149
644.198	148.5
642.188	144
640.177	119
638.165	153
636.153	152.5
634.14	149.5
632.128	161
630.113	134
628.099	144.5
626.085	168
624.07	147.5
622.054	180
620.038	146.5
618.021	154
616.004	144
613.986	138
611.968	136
609.949	132
607.93	114
605.911	132
603.891	131
601.87	147
599.848	146
597.827	150.5
595.805	153
593.782	140.5
591.759	132
589.735	139
587.711	140
585.687	120
583.661	142
581.636	160
579.609	130
577.583	116
575.555	145.5
573.527	136
571.5	146.5
569.471	129
567.441	162
565.412	162.5
563.382	136
561.351	158.5
559.32	176
557.289	169
555.257	185.5
553.223	183
551.19	166.5
549.157	179
547.122	181
545.088	198.5
543.053	202
541.017	215.5
538.981	257
536.943	265.5
534.907	366
532.869	426
530.831	572
528.792	809
526.752	1345
524.713	2084
522.673	2683
520.632	2839.5
518.591	2453
516.549	1845.5
514.507	1213
512.464	796.5
510.42	506
508.377	380.5
506.332	317.5
504.288	250.5
502.242	263.5
500.196	227
498.15	222
496.104	202
494.056	194
492.008	185
489.96	185
487.911	195
485.862	177
483.812	175.5
481.761	180
479.71	163.5
477.659	177
475.607	162.5
473.555	177.5
471.502	146
469.448	177.5
467.395	159.5
465.34	154.5
463.285	147
461.23	160
459.174	164.5
457.118	169
455.061	124
453.003	161.5
450.945	158
448.887	154
446.828	143
444.768	157
442.708	165
440.647	168
438.587	184.5
436.525	174.5
434.463	180.5
432.4	173
430.337	180
428.274	164
426.21	161.5
424.145	195
422.079	176
420.014	164.5
417.948	168
415.882	183.5
413.814	155
411.746	181
409.679	181
407.609	180.5
405.54	164
403.47	149.5
401.401	148
399.329	159
397.258	163
395.187	172.5
393.114	167.5
391.041	175.5
388.968	156.5
386.895	170
384.82	182
382.745	168
380.67	185
378.594	199
376.517	160
374.44	160
372.363	178
370.286	161
368.207	173.5
366.128	193
364.049	172.5
361.969	178.5
359.888	176
357.807	147.5
355.725	161
353.643	196
351.561	147.5
349.477	166
347.394	201.5
345.31	173
343.226	186
341.141	158.5
339.055	193.5
336.968	178
334.882	179
332.795	177.5
330.707	176
328.618	209
326.53	205.5
324.44	195
322.351	214.5
320.26	219
318.17	238.5
316.078	240
313.987	240
311.895	245
309.802	256
307.708	275
305.614	278.5
303.52	288.5
301.425	288
299.329	254
297.233	277
295.137	211
293.039	220
290.942	250
288.844	209
286.745	207.5
284.647	193
282.546	198
280.446	205
278.346	171
276.245	177.5
274.143	167.5
272.041	174
269.939	185.5
267.835	190
265.731	190
263.627	181
261.522	190
259.417	174.5
257.311	183
255.204	187.5
253.098	169
250.99	148.5
248.882	163
246.774	200
244.664	178.5
242.555	184
240.445	185
238.334	167
236.223	151.5
234.112	173
232	165.5
229.888	190.5
227.775	175
225.661	173.5
223.546	186
221.431	182
219.316	197
217.201	168.5
215.084	160
212.967	159.5
210.85	157
208.732	173
206.614	174
204.495	166.5
202.375	183
200.256	176.5
198.135	159
196.014	192.5
193.893	180.5
191.771	206
189.648	157.5
187.525	205
185.401	217
183.277	166
181.152	215
179.027	172
176.901	203
174.775	190.5
172.648	201.5
170.521	188
168.393	224
166.265	203.5
164.136	214.5
162.007	253
159.876	245.5
157.746	251.5
155.615	241
153.483	258
151.351	280
149.219	285.5
147.086	267
144.952	292
142.818	337
140.684	326
138.548	292
136.413	357.5
134.276	342
132.139	346.5
130.002	376.5
127.864	395.5
125.725	429.5
123.587	413
121.447	469.5
119.307	454
117.166	481
115.026	512.5
112.885	484
110.743	548
108.6	555
106.456	564.5
104.313	570
102.169	539.5
100.023	558
97.8789	533
95.7328	497.5
93.5869	430.5
91.4392	384
89.2919	340.5
87.1447	262
84.9959	221
