3528.51	283.778
3527.23	308.222
3525.95	308.667
3524.67	317.111
3523.39	325.333
3522.1	323.333
3520.82	331.111
3519.54	335.111
3518.26	326.889
3516.97	331.778
3515.69	320.889
3514.4	333.333
3513.12	323.333
3511.84	336.222
3510.55	330
3509.26	341.333
3507.98	342.667
3506.69	343.111
3505.41	346.889
3504.12	353.333
3502.83	349.778
3501.54	361.333
3500.26	364.444
3498.97	376.222
3497.68	376.667
3496.39	376
3495.1	375.333
3493.81	384.889
3492.52	402.222
3491.23	404.444
3489.94	391.556
3488.65	405.333
3487.36	410.444
3486.07	413.556
3484.78	432.444
3483.49	420.444
3482.19	428.889
3480.9	451.556
3479.61	451.111
3478.31	451.778
3477.02	450.889
3475.73	465.333
3474.43	476
3473.14	472
3471.84	484.889
3470.54	473.778
3469.25	486.444
3467.95	486.667
3466.66	485.333
3465.36	500.444
3464.06	487.333
3462.76	500.889
3461.46	504.444
3460.17	505.333
3458.87	512.889
3457.57	524.889
3456.27	517.111
3454.97	502.222
3453.67	515.556
3452.37	530.667
3451.07	536.667
3449.77	530.444
3448.47	544.222
3447.16	550.222
3445.86	562.889
3444.56	574.444
3443.26	578.889
3441.95	574.889
3440.65	593.556
3439.35	605.111
3438.04	610.889
3436.74	622.889
3435.43	634
3434.13	648.444
3432.82	651.111
3431.52	673.778
3430.21	677.556
3428.9	697.778
3427.6	710.444
3426.29	724.667
3424.98	727.778
3423.67	734.667
3422.36	751.556
3421.06	752.889
3419.75	779.556
3418.44	786.889
3417.13	781.556
3415.82	796.445
3414.51	807.778
3413.2	830
3411.88	829.111
3410.57	831.111
3409.26	833.111
3407.95	832.444
3406.64	848.667
3405.32	863.111
3404.01	862.222
3402.7	869.111
3401.38	875.333
3400.07	903.778
3398.75	886.667
3397.44	899.778
3396.12	903.111
3394.81	927.556
3393.49	921.556
3392.18	914.222
3390.86	928.667
3389.54	952.222
3388.23	957.111
3386.91	975.333
3385.59	973.333
3384.27	1002
3382.95	984
3381.63	1005.78
3380.31	1009.78
3378.99	1017.78
3377.67	1020
3376.35	1032.44
3375.03	1041.11
3373.71	1052.67
3372.39	1066
3371.07	1067.33
3369.75	1060.67
3368.42	1088.89
3367.1	1095.33
3365.78	1106.22
3364.45	1121.11
3363.13	1107.33
3361.81	1128.89
3360.48	1140
3359.16	1131.56
3357.83	1140.67
3356.51	1158.89
3355.18	1137.78
3353.85	1164.67
3352.53	1168.67
3351.2	1170.89
3349.87	1178.22
3348.54	1184.89
3347.22	1197.56
3345.89	1197.56
3344.56	1217.33
3343.23	1195.56
3341.9	1199.56
3340.57	1198
3339.24	1216.67
3337.91	1232.67
3336.58	1215.11
3335.25	1228.22
3333.92	1224.89
3332.58	1238
3331.25	1241.11
3329.92	1223.11
3328.59	1244.44
3327.25	1232
3325.92	1259.33
3324.58	1271.11
3323.25	1283.11
3321.92	1267.56
3320.58	1274
3319.25	1276.67
3317.91	1292.89
3316.57	1304.89
3315.24	1314.22
3313.9	1318
3312.56	1322
3311.23	1318
3309.89	1319.33
3308.55	1336
3307.21	1356.22
3305.87	1357.11
3304.53	1364.67
3303.19	1356.89
3301.85	1371.33
3300.51	1385.78
3299.17	1378.67
3297.83	1395.33
3296.49	1392.22
3295.15	1409.33
3293.81	1405.56
3292.46	1420
3291.12	1415.11
3289.78	1424.89
3288.43	1414.22
3287.09	1409.11
3285.75	1419.33
3284.4	1428.44
3283.06	1440.89
3281.71	1442.22
3280.37	1449.56
3279.02	1464.44
3277.67	1474.67
3276.33	1462.67
3274.98	1465.33
3273.63	1504
3272.28	1499.33
3270.94	1516
3269.59	1542.89
3268.24	1535.11
3266.89	1545.56
3265.54	1578
3264.19	1587.33
3262.84	1595.78
3261.49	1636.44
3260.14	1650.67
3258.79	1676.89
3257.44	1695.78
3256.08	1716.44
3254.73	1750.67
3253.38	1770.89
3252.03	1800.22
3250.67	1872.44
3249.32	1919.78
3247.96	1956.44
3246.61	2004.44
3245.26	2055.56
3243.9	2102.89
3242.54	2157.11
3241.19	2225.56
3239.83	2232.22
3238.48	2336.67
3237.12	2376.67
3235.76	2439.78
3234.41	2486.44
3233.05	2556.89
3231.69	2607.78
3230.33	2674.22
3228.97	2747.56
3227.61	2797.11
3226.25	2845.11
3224.89	2912.22
3223.53	2945.56
3222.17	3029.56
3220.81	3027.33
3219.45	3072.22
3218.09	3116.89
3216.72	3158.44
3215.36	3204.22
3214	3229.56
3212.63	3246.22
3211.27	3282.44
3209.91	3300.67
3208.54	3347.78
3207.18	3374.89
3205.81	3410.89
3204.45	3402.89
3203.08	3432
3201.71	3445.56
3200.35	3446.44
3198.98	3482
3197.61	3481.56
3196.25	3499.78
3194.88	3527.56
3193.51	3553.11
3192.14	3532.89
3190.77	3582
3189.4	3604.22
3188.03	3607.11
3186.66	3615.11
3185.29	3626.67
3183.92	3652.89
3182.55	3638.22
3181.18	3700
3179.81	3700.44
3178.44	3742.67
3177.06	3748.67
3175.69	3791.56
3174.32	3805.56
3172.94	3832
3171.57	3863.11
3170.2	3876.89
3168.82	3926
3167.45	3934.89
3166.07	3962
3164.69	3992.67
3163.32	4034.44
3161.94	4060
3160.56	4088.67
3159.19	4124
3157.81	4157.56
3156.43	4143.11
3155.05	4233.11
3153.67	4252.44
3152.3	4295.33
3150.92	4320.22
3149.54	4329.11
3148.16	4378.67
3146.78	4402.67
3145.4	4478.67
3144.01	4435.33
3142.63	4470
3141.25	4520
3139.87	4570.89
3138.49	4572.44
3137.1	4588.67
3135.72	4618.89
3134.34	4648
3132.95	4657.11
3131.57	4716.89
3130.18	4753.56
3128.8	4778.89
3127.41	4803.11
3126.03	4789.11
3124.64	4860.22
3123.25	4893.56
3121.87	4925.33
3120.48	4933.78
3119.09	4976.89
3117.7	5012.89
3116.32	5048.44
3114.93	5049.78
3113.54	5069.11
3112.15	5101.78
3110.76	5124
3109.37	5133.11
3107.98	5167.11
3106.59	5225.11
3105.2	5222.89
3103.8	5247.11
3102.41	5282.67
3101.02	5291.11
3099.63	5326.89
3098.23	5354.22
3096.84	5382.44
3095.45	5377.56
3094.05	5401.56
3092.66	5439.11
3091.26	5464.67
3089.87	5510.44
3088.47	5506.89
3087.08	5536.44
3085.68	5587.78
3084.28	5576.44
3082.89	5549.11
3081.49	5580.89
3080.09	5601.56
3078.69	5617.56
3077.3	5635.33
3075.9	5624.89
3074.5	5662
3073.1	5659.78
3071.7	5675.11
3070.3	5701.56
3068.9	5667.11
3067.5	5717.11
3066.09	5730.22
3064.69	5741.33
3063.29	5772
3061.89	5774
3060.48	5794
3059.08	5821.11
3057.68	5856
3056.27	5805.11
3054.87	5880
3053.46	5879.33
3052.06	5890.67
3050.65	5910.22
3049.25	5928.22
3047.84	5975.78
3046.44	6023.78
3045.03	6009.33
3043.62	6021.33
3042.21	6016.89
3040.81	6073.78
3039.4	6062
3037.99	6072.22
3036.58	6108.89
3035.17	6091.56
3033.76	6147.11
3032.35	6124
3030.94	6178.89
3029.53	6170
3028.12	6221.11
3026.71	6195.11
3025.29	6178.89
3023.88	6202.67
3022.47	6232.89
3021.06	6237.56
3019.64	6245.33
3018.23	6213.33
3016.82	6251.78
3015.4	6224
3013.99	6237.78
3012.57	6259.56
3011.15	6234.67
3009.74	6307.78
3008.32	6272.44
3006.91	6364.89
3005.49	6324.89
3004.07	6370.67
3002.65	6395.11
3001.24	6426.22
2999.82	6442.22
2998.4	6466
2996.98	6431.78
2995.56	6534.44
2994.14	6486.44
2992.72	6532.44
2991.3	6561.56
2989.88	6595.78
2988.46	6613.33
2987.03	6623.33
2985.61	6677.33
2984.19	6700
2982.77	6734.22
2981.34	6790.67
2979.92	6793.78
2978.49	6828
2977.07	6878.67
2975.65	6916.67
2974.22	6924.89
2972.79	6951.33
2971.37	6987.56
2969.94	7032.89
2968.52	7064.67
2967.09	7098.22
2965.66	7100.44
2964.23	7131.11
2962.81	7120.44
2961.38	7167.56
2959.95	7137.78
2958.52	7175.11
2957.09	7214.89
2955.66	7199.33
2954.23	7246.89
2952.8	7269.11
2951.37	7241.78
2949.94	7298
2948.5	7288.44
2947.07	7292.44
2945.64	7316.22
2944.21	7320.22
2942.77	7300.22
2941.34	7368.44
2939.91	7329.56
2938.47	7349.78
2937.04	7433.78
2935.6	7436.22
2934.17	7427.56
2932.73	7436.67
2931.29	7503.33
2929.86	7491.56
2928.42	7569.56
2926.98	7544.67
2925.55	7564.67
2924.11	7617.33
2922.67	7638.22
2921.23	7661.56
2919.79	7646.44
2918.35	7679.56
2916.91	7690
2915.47	7718.67
2914.03	7704.89
2912.59	7730.89
2911.15	7696.89
2909.71	7738.67
2908.26	7750.44
2906.82	7731.56
2905.38	7774
2903.94	7824.89
2902.49	7798.22
2901.05	7852.89
2899.6	7869.56
2898.16	7868.67
2896.71	7908.89
2895.27	7886
2893.82	7934.22
2892.38	7936
2890.93	7951.56
2889.48	7953.56
2888.03	7920.89
2886.59	7976.44
2885.14	7976
2883.69	7993.78
2882.24	7987.56
2880.79	8005.56
2879.34	8017.11
2877.89	8082.44
2876.44	8039.78
2874.99	8030.67
2873.54	8031.78
2872.09	8018.44
2870.64	8047.11
2869.18	8044
2867.73	8086.67
2866.28	8020.44
2864.83	8080.44
2863.37	8090.89
2861.92	8093.33
2860.46	8128.89
2859.01	8125.11
2857.55	8106.44
2856.1	8132.44
2854.64	8102
2853.19	8112.89
2851.73	8117.33
2850.27	8121.11
2848.81	8103.56
2847.36	8118.22
2845.9	8059.33
2844.44	8089.56
2842.98	8081.33
2841.52	8058.22
2840.06	8012.89
2838.6	8015.56
2837.14	7998.89
2835.68	7969.56
2834.22	7988.67
2832.76	7998.22
2831.3	7985.11
2829.83	7981.56
2828.37	7955.56
2826.91	7953.11
2825.44	7978.67
2823.98	7939.33
2822.52	7940.67
2821.05	7917.56
2819.59	7919.33
2818.12	7896.22
2816.66	7852.22
2815.19	7844
2813.72	7865.78
2812.26	7841.11
2810.79	7797.78
2809.32	7838.22
2807.85	7718.67
2806.38	7763.11
2804.92	7755.33
2803.45	7786
2801.98	7738
2800.51	7765.78
2799.04	7757.33
2797.57	7713.78
2796.1	7658.67
2794.62	7711.56
2793.15	7732.22
2791.68	7683.11
2790.21	7642.67
2788.73	7666.89
2787.26	7672.89
2785.79	7639.11
2784.31	7692.67
2782.84	7677.78
2781.36	7700.22
2779.89	7673.56
2778.41	7747.56
2776.94	7733.33
2775.46	7800.89
2773.99	7738
2772.51	7769.78
2771.03	7816.67
2769.55	7829.78
2768.07	7878.89
2766.6	7888.44
2765.12	7866.67
2763.64	7892.22
2762.16	7884.89
2760.68	7861.56
2759.2	7898.44
2757.72	7842
2756.24	7886.89
2754.75	7892.22
2753.27	7900
2751.79	7897.11
2750.31	7847.78
2748.82	7871.56
2747.34	7914.44
2745.86	7874.89
2744.37	7826.67
2742.89	7812
2741.4	7833.78
2739.92	7842.22
2738.43	7826
2736.94	7810.89
2735.46	7832.67
2733.97	7803.11
2732.48	7802.67
2731	7780.22
2729.51	7778
2728.02	7787.11
2726.53	7791.56
2725.04	7786
2723.55	7774.22
2722.06	7800.22
2720.57	7725.78
2719.08	7773.33
2717.59	7798.89
2716.1	7783.78
2714.61	7783.56
2713.11	7765.11
2711.62	7810
2710.13	7823.33
2708.64	7787.78
2707.14	7794.67
2705.65	7766.67
2704.15	7788.44
2702.66	7750.89
2701.16	7723.56
2699.67	7736
2698.17	7695.56
2696.67	7712.67
2695.18	7720.44
2693.68	7680
2692.18	7721.11
2690.69	7722.89
2689.19	7691.56
2687.69	7683.56
2686.19	7594.67
2684.69	7671.11
2683.19	7604.22
2681.69	7646.44
2680.19	7592.67
2678.69	7544.89
2677.19	7556.44
2675.68	7561.11
2674.18	7522
2672.68	7558
2671.18	7491.56
2669.67	7517.56
2668.17	7512.67
2666.66	7469.56
2665.16	7452
2663.66	7459.33
2662.15	7429.11
2660.64	7417.56
2659.14	7444.89
2657.63	7440.67
2656.13	7443.33
2654.62	7424.22
2653.11	7425.56
2651.6	7369.78
2650.09	7372.22
2648.58	7343.33
2647.08	7336.22
2645.57	7330
2644.06	7230.22
2642.55	7318
2641.04	7264.22
2639.52	7261.11
2638.01	7269.56
2636.5	7268.44
2634.99	7184.22
2633.48	7202.67
2631.96	7118.67
2630.45	7147.33
2628.94	7156.67
2627.42	7089.33
2625.91	7101.78
2624.39	7046.22
2622.88	7087.78
2621.36	7117.78
2619.85	7077.33
2618.33	7106.67
2616.81	7069.11
2615.3	7087.11
2613.78	7088.22
2612.26	7097.33
2610.74	7071.78
2609.22	7056.44
2607.7	7041.33
2606.18	7026.44
2604.66	6964.44
2603.14	7009.11
2601.62	6960.89
2600.1	6885.78
2598.58	6859.56
2597.06	6889.11
2595.54	6841.33
2594.01	6872.44
2592.49	6812
2590.97	6812
2589.44	6838
2587.92	6736.67
2586.39	6744.22
2584.87	6733.11
2583.34	6731.33
2581.82	6774
2580.29	6738.89
2578.76	6700.22
2577.24	6701.33
2575.71	6648.22
2574.18	6660.44
2572.65	6662
2571.13	6659.56
2569.6	6661.11
2568.07	6631.56
2566.54	6632.67
2565.01	6650.22
2563.48	6598.44
2561.95	6592.44
2560.42	6603.11
2558.88	6592.89
2557.35	6574.44
2555.82	6552.89
2554.29	6518.44
2552.75	6535.78
2551.22	6502.22
2549.69	6518
2548.15	6464.22
2546.62	6452.22
2545.08	6460.22
2543.55	6436.67
2542.01	6420.89
2540.47	6427.11
2538.94	6401.11
2537.4	6343.56
2535.86	6320
2534.33	6344.89
2532.79	6294
2531.25	6338.22
2529.71	6289.56
2528.17	6254.44
2526.63	6225.56
2525.09	6206.67
2523.55	6195.33
2522.01	6157.33
2520.47	6196.67
2518.92	6172.22
2517.38	6146.22
2515.84	6169.33
2514.3	6151.33
2512.75	6137.78
2511.21	6158.67
2509.67	6074.22
2508.12	6090.22
2506.58	6045.78
2505.03	6063.33
2503.49	6046.22
2501.94	6003.56
2500.39	5986.89
2498.85	5946.67
2497.3	5946
2495.75	5876
2494.2	5923.11
2492.65	5882.89
2491.11	5890
2489.56	5843.11
2488.01	5807.78
2486.46	5804.44
2484.91	5759.11
2483.36	5729.78
2481.8	5731.33
2480.25	5751.33
2478.7	5725.33
2477.15	5730
2475.6	5714.67
2474.04	5682
2472.49	5667.11
2470.93	5586.22
2469.38	5577.56
2467.83	5540
2466.27	5520
2464.71	5518.67
2463.16	5505.33
2461.6	5503.33
2460.05	5445.33
2458.49	5411.78
2456.93	5417.11
2455.37	5411.11
2453.81	5372.67
2452.26	5365.11
2450.7	5360.67
2449.14	5305.11
2447.58	5262.44
2446.02	5246.44
2444.46	5222.67
2442.9	5198.89
2441.33	5238.67
2439.77	5159.56
2438.21	5142.67
2436.65	5224.67
2435.08	5163.11
2433.52	5155.11
2431.96	5154.89
2430.39	5160.89
2428.83	5148
2427.26	5122.67
2425.7	5122.44
2424.13	5070.44
2422.56	5080
2421	5085.33
2419.43	5029.56
2417.86	5003.56
2416.3	5016.67
2414.73	5009.11
2413.16	5013.56
2411.59	4981.33
2410.02	4956.67
2408.45	4951.33
2406.88	4992
2405.31	4944.89
2403.74	4930.67
2402.17	4928
2400.6	4949.78
2399.02	4919.11
2397.45	4878.67
2395.88	4878
2394.3	4816.22
2392.73	4832.44
2391.16	4813.11
2389.58	4811.78
2388.01	4798
2386.43	4790.67
2384.86	4777.56
2383.28	4777.33
2381.7	4794.22
2380.13	4808.22
2378.55	4776.89
2376.97	4752.22
2375.39	4747.56
2373.81	4766.22
2372.23	4753.56
2370.65	4733.33
2369.07	4710.89
2367.49	4705.56
2365.91	4724
2364.33	4688.44
2362.75	4669.78
2361.17	4656.67
2359.59	4637.78
2358.01	4634.89
2356.42	4639.56
2354.84	4622
2353.25	4629.33
2351.67	4648.89
2350.09	4648.22
2348.5	4584
2346.92	4602.44
2345.33	4599.56
2343.74	4556.22
2342.16	4579.56
2340.57	4618
2338.98	4558
2337.39	4525.11
2335.81	4509.78
2334.22	4493.56
2332.63	4479.78
2331.04	4476.89
2329.45	4503.11
2327.86	4472.67
2326.27	4443.78
2324.68	4451.78
2323.09	4435.56
2321.49	4425.78
2319.9	4420.67
2318.31	4411.33
2316.72	4400
2315.12	4342.22
2313.53	4370.67
2311.93	4364.67
2310.34	4316.44
2308.74	4311.56
2307.15	4275.11
2305.55	4294.22
2303.96	4237.33
2302.36	4231.78
2300.76	4231.56
2299.17	4207.56
2297.57	4182.89
2295.97	4164.44
2294.37	4152.89
2292.77	4113.56
2291.17	4123.11
2289.57	4102.22
2287.97	4092.89
2286.37	4073.56
2284.77	4071.56
2283.17	4073.78
2281.57	4057.56
2279.96	4054.22
2278.36	4039.33
2276.76	4005.78
2275.15	4012
2273.55	4013.78
2271.95	4002.22
2270.34	3976.44
2268.74	3996
2267.13	3954.44
2265.52	3948.67
2263.92	3914.89
2262.31	3880.89
2260.7	3865.33
2259.1	3884.44
2257.49	3855.56
2255.88	3866.44
2254.27	3853.33
2252.66	3822.89
2251.05	3848.22
2249.44	3852.44
2247.83	3852.44
2246.22	3834.67
2244.61	3820.44
2243	3820.44
2241.39	3784.67
2239.77	3794.22
2238.16	3775.78
2236.55	3762
2234.93	3715.56
2233.32	3717.11
2231.7	3690
2230.09	3678
2228.47	3649.33
2226.86	3642.44
2225.24	3607.11
2223.63	3634.44
2222.01	3623.56
2220.39	3590
2218.77	3580.44
2217.16	3590.89
2215.54	3546.67
2213.92	3555.78
2212.3	3508.67
2210.68	3515.78
2209.06	3504.67
2207.44	3502.89
2205.82	3503.56
2204.19	3441.11
2202.57	3448.67
2200.95	3425.33
2199.33	3425.78
2197.7	3412
2196.08	3436.67
2194.46	3417.78
2192.83	3398.89
2191.21	3397.56
2189.58	3386.22
2187.96	3365.11
2186.33	3358.22
2184.7	3352.44
2183.08	3308.22
2181.45	3313.78
2179.82	3348
2178.19	3317.33
2176.57	3284.44
2174.94	3298.44
2173.31	3264
2171.68	3240
2170.05	3245.56
2168.42	3237.33
2166.79	3228.67
2165.16	3237.78
2163.52	3189.11
2161.89	3183.11
2160.26	3162
2158.63	3185.11
2156.99	3158.67
2155.36	3137.33
2153.73	3116.44
2152.09	3122.67
2150.46	3091.56
2148.82	3127.78
2147.18	3068.22
2145.55	3069.56
2143.91	3063.78
2142.27	3036.89
2140.64	3056
2139	3040.22
2137.36	3013.56
2135.72	2990.22
2134.08	2979.56
2132.44	2979.11
2130.8	2935.11
2129.16	2962.44
2127.52	2912.89
2125.88	2925.11
2124.24	2905.11
2122.6	2877.33
2120.95	2851.11
2119.31	2861.33
2117.67	2849.56
2116.02	2859.78
2114.38	2818.22
2112.74	2816.44
2111.09	2807.33
2109.45	2778.89
2107.8	2784.22
2106.15	2776.89
2104.51	2754.67
2102.86	2736.22
2101.21	2757.78
2099.56	2729.11
2097.92	2701.11
2096.27	2730.67
2094.62	2710.22
2092.97	2709.78
2091.32	2680.44
2089.67	2675.78
2088.02	2666.89
2086.37	2680.89
2084.72	2653.56
2083.06	2633.56
2081.41	2636.89
2079.76	2651.56
2078.1	2640.67
2076.45	2610.22
2074.8	2627.33
2073.14	2627.11
2071.49	2629.11
2069.83	2620
2068.18	2610.22
2066.52	2599.56
2064.86	2612.22
2063.21	2599.33
2061.55	2585.11
2059.89	2567.78
2058.23	2580.44
2056.57	2566.22
2054.92	2560.22
2053.26	2568.89
2051.6	2537.56
2049.94	2537.56
2048.27	2537.11
2046.61	2532
2044.95	2512.67
2043.29	2504.22
2041.63	2500.67
2039.97	2477.78
2038.3	2449.56
2036.64	2436.89
2034.97	2429.33
2033.31	2421.11
2031.64	2399.33
2029.98	2395.33
2028.31	2372.22
2026.65	2353.11
2024.98	2339.33
2023.31	2334.89
2021.65	2312.22
2019.98	2297.56
2018.31	2294.44
2016.64	2281.33
2014.97	2275.78
2013.3	2282.22
2011.63	2280.44
2009.96	2284.22
2008.29	2257.33
2006.62	2236
2004.95	2247.56
2003.28	2208.22
2001.6	2210.89
1999.93	2209.56
1998.26	2220.44
1996.58	2226.67
1994.91	2199.78
1993.24	2200.44
1991.56	2197.33
1989.89	2185.11
1988.21	2183.33
1986.53	2166.22
1984.86	2161.78
1983.18	2142.89
1981.5	2138.89
1979.82	2130.22
1978.15	2106.67
1976.47	2091.78
1974.79	2101.78
1973.11	2092.44
1971.43	2070.44
1969.75	2077.33
1968.07	2084.44
1966.38	2038.89
1964.7	2043.11
1963.02	2039.56
1961.34	2036.67
1959.66	2029.33
1957.97	2002.44
1956.29	2015.11
1954.6	1986.22
1952.92	1973.56
1951.23	1980.89
1949.55	1958
1947.86	1961.56
1946.18	1946
1944.49	1941.33
1942.8	1947.56
1941.11	1938.67
1939.43	1915.11
1937.74	1905.33
1936.05	1917.56
1934.36	1899.78
1932.67	1878.44
1930.98	1876.89
1929.29	1867.56
1927.6	1860.44
1925.91	1844
1924.21	1838
1922.52	1825.56
1920.83	1818.67
1919.14	1824
1917.44	1802.22
1915.75	1796.67
1914.05	1793.33
1912.36	1800.22
1910.66	1787.56
1908.97	1801.78
1907.27	1787.56
1905.58	1749.11
1903.88	1765.11
1902.18	1742.67
1900.48	1725.78
1898.79	1715.56
1897.09	1721.56
1895.39	1688.89
1893.69	1704
1891.99	1682.67
1890.29	1689.56
1888.59	1674
1886.89	1659.11
1885.18	1641.11
1883.48	1638.22
1881.78	1625.33
1880.08	1616.67
1878.37	1609.33
1876.67	1588
1874.96	1574.44
1873.26	1579.11
1871.55	1574.89
1869.85	1573.78
1868.14	1552.89
1866.44	1542.89
1864.73	1549.78
1863.02	1538.89
1861.32	1524
1859.61	1534
1857.9	1515.78
1856.19	1520.44
1854.48	1497.11
1852.77	1520.22
1851.06	1501.78
1849.35	1521.11
1847.64	1488.44
1845.93	1502
1844.21	1488.22
1842.5	1471.56
1840.79	1475.11
1839.08	1482.89
1837.36	1461.11
1835.65	1445.78
1833.93	1460.67
1832.22	1432.89
1830.5	1430.22
1828.79	1413.11
1827.07	1410.89
1825.36	1399.33
1823.64	1396.89
1821.92	1400.67
1820.2	1377.56
1818.48	1371.11
1816.77	1392.89
1815.05	1356.22
1813.33	1375.11
1811.61	1350.89
1809.89	1360.22
1808.16	1333.56
1806.44	1347.56
1804.72	1336.22
1803	1332
1801.28	1305.56
1799.55	1331.56
1797.83	1313.78
1796.11	1299.11
1794.38	1302.44
1792.66	1288.22
1790.93	1276.89
1789.21	1279.78
1787.48	1280.22
1785.75	1267.56
1784.03	1260.67
1782.3	1256
1780.57	1254.44
1778.84	1237.78
1777.11	1230.67
1775.38	1226
1773.66	1226
1771.93	1237.78
1770.19	1246.22
1768.46	1243.56
1766.73	1237.78
1765	1225.33
1763.27	1242.22
1761.54	1222.67
1759.8	1248
1758.07	1232
1756.34	1240.67
1754.6	1243.56
1752.87	1244.44
1751.13	1235.33
1749.4	1245.11
1747.66	1249.11
1745.92	1242.67
1744.19	1228
1742.45	1232.44
1740.71	1234.44
1738.97	1201.11
1737.23	1196.22
1735.49	1192.44
1733.75	1190
1732.01	1171.11
1730.27	1155.33
1728.53	1173.78
1726.79	1149.33
1725.05	1142.22
1723.31	1144.89
1721.57	1121.78
1719.82	1135.56
1718.08	1111.33
1716.34	1103.11
1714.59	1099.56
1712.85	1093.56
1711.1	1089.11
1709.36	1089.33
1707.61	1082.89
1705.86	1072.89
1704.12	1070.44
1702.37	1056
1700.62	1051.78
1698.87	1059.56
1697.12	1040.67
1695.37	1040.67
1693.62	1032.22
1691.87	1033.33
1690.12	1018.89
1688.37	997.778
1686.62	1011.11
1684.87	1013.11
1683.12	1008.67
1681.36	1012.89
1679.61	993.111
1677.86	1004.22
1676.1	1001.11
1674.35	1007.33
1672.59	998
1670.84	1014.44
1669.08	1013.11
1667.33	1034.22
1665.57	1045.56
1663.81	1064.67
1662.06	1115.33
1660.3	1105.11
1658.54	1146.89
1656.78	1145.11
1655.02	1143.56
1653.26	1110.22
1651.5	1099.33
1649.74	1063.11
1647.98	1031.56
1646.22	1000.89
1644.46	1008
1642.7	974
1640.93	946.444
1639.17	932.667
1637.41	952.889
1635.64	920
1633.88	925.778
1632.11	906
1630.35	898.444
1628.58	882.667
1626.81	884.667
1625.05	892.444
1623.28	870.667
1621.51	871.556
1619.75	869.111
1617.98	867.111
1616.21	866.222
1614.44	849.778
1612.67	851.556
1610.9	849.111
1609.13	842
1607.36	846.222
1605.58	844.889
1603.81	836.444
1602.04	835.333
1600.27	844.444
1598.49	840.222
1596.72	835.778
1594.95	842.667
1593.17	846.222
1591.4	829.778
1589.62	830.222
1587.84	826.222
1586.07	813.556
1584.29	828.222
1582.51	805.778
1580.74	797.778
1578.96	811.778
1577.18	797.778
1575.4	797.111
1573.62	796
1571.84	802.889
1570.06	789.111
1568.28	780.889
1566.5	774.444
1564.72	768.222
1562.93	766.889
1561.15	769.556
1559.37	770.222
1557.58	753.778
1555.8	761.333
1554.02	763.778
1552.23	765.778
1550.45	750.889
1548.66	743.556
1546.87	749.556
1545.09	730.444
1543.3	745.111
1541.51	726.222
1539.72	729.556
1537.94	728.222
1536.15	722.667
1534.36	721.333
1532.57	719.111
1530.78	714.889
1528.99	705.556
1527.2	699.555
1525.4	686
1523.61	697.778
1521.82	703.111
1520.03	700
1518.23	695.333
1516.44	696.222
1514.65	692.667
1512.85	679.778
1511.06	695.333
1509.26	686.889
1507.46	684.667
1505.67	682.444
1503.87	694.222
1502.07	685.778
1500.28	678.889
1498.48	696
1496.68	690.222
1494.88	696.889
1493.08	684.889
1491.28	700.222
1489.48	706.889
1487.68	710.444
1485.88	714.222
1484.08	710.667
1482.27	740.222
1480.47	736.889
1478.67	753.333
1476.86	769.111
1475.06	782.444
1473.25	803.778
1471.45	824.444
1469.64	842.667
1467.84	886.889
1466.03	906.889
1464.23	934.889
1462.42	955.778
1460.61	1004.44
1458.8	1001.78
1456.99	1022
1455.18	1037.11
1453.37	1048
1451.56	1068.44
1449.75	1075.78
1447.94	1122.89
1446.13	1124.44
1444.32	1168
1442.51	1180.89
1440.7	1184.44
1438.88	1163.56
1437.07	1108.22
1435.26	1039.33
1433.44	983.333
1431.63	918
1429.81	834.889
1427.99	789.111
1426.18	768.445
1424.36	729.333
1422.54	716
1420.73	688.889
1418.91	683.778
1417.09	672.444
1415.27	658
1413.45	636.667
1411.63	618.667
1409.81	603.111
1407.99	606.889
1406.17	617.778
1404.35	597.333
1402.53	597.556
1400.7	588.667
1398.88	583.555
1397.06	562.667
1395.23	571.556
1393.41	566.667
1391.58	567.333
1389.76	568
1387.93	556.667
1386.11	557.778
1384.28	554.667
1382.45	564
1380.62	563.111
1378.8	560.222
1376.97	571.778
1375.14	570.889
1373.31	557.778
1371.48	577.555
1369.65	560.667
1367.82	571.556
1365.99	556.445
1364.16	556.222
1362.32	561.778
1360.49	550.222
1358.66	543.333
1356.82	532.444
1354.99	540.889
1353.16	531.333
1351.32	541.778
1349.48	540.444
1347.65	546.222
1345.81	540
1343.98	527.778
1342.14	539.778
1340.3	540.444
1338.46	538.667
1336.62	547.778
1334.79	545.556
1332.95	549.111
1331.11	563.111
1329.27	564.222
1327.42	589.333
1325.58	596
1323.74	592.444
1321.9	611.333
1320.06	623.111
1318.21	643.556
1316.37	673.111
1314.53	688.222
1312.68	724.889
1310.84	743.778
1308.99	778
1307.15	806.889
1305.3	823.333
1303.45	860.667
1301.61	874.222
1299.76	882
1297.91	874.444
1296.06	828
1294.21	772
1292.36	719.111
1290.51	698
1288.66	661.778
1286.81	639.111
1284.96	648.667
1283.11	634
1281.26	630.222
1279.4	622.667
1277.55	622
1275.7	633.778
1273.84	637.111
1271.99	630.667
1270.13	634.889
1268.28	620.667
1266.42	636.222
1264.56	612.444
1262.71	618.222
1260.85	596
1258.99	591.111
1257.13	588
1255.27	569.333
1253.41	568.667
1251.56	548.444
1249.7	526.667
1247.83	512.667
1245.97	520.667
1244.11	495.556
1242.25	493.111
1240.39	479.111
1238.52	474
1236.66	461.778
1234.8	475.556
1232.93	464.667
1231.07	456
1229.2	460.222
1227.34	451.333
1225.47	442.444
1223.6	446.667
1221.74	431.333
1219.87	437.778
1218	433.111
1216.13	430.889
1214.26	420.444
1212.39	426
1210.53	426.222
1208.65	414.667
1206.78	417.778
1204.91	415.778
1203.04	412.444
1201.17	412
1199.3	407.556
1197.42	414.444
1195.55	414.889
1193.68	412.667
1191.8	405.111
1189.93	404.222
1188.05	402.889
1186.17	390.889
1184.3	404
1182.42	413.556
1180.54	410
1178.67	407.333
1176.79	404.444
1174.91	399.778
1173.03	398
1171.15	394.222
1169.27	403.778
1167.39	395.556
1165.51	403.778
1163.63	386
1161.75	390.222
1159.86	390.444
1157.98	398
1156.1	409.556
1154.21	388.222
1152.33	378
1150.44	399.333
1148.56	392
1146.67	395.333
1144.79	408.222
1142.9	398
1141.01	403.556
1139.12	420
1137.24	425.111
1135.35	456.444
1133.46	479.556
1131.57	516.667
1129.68	526
1127.79	522.222
1125.9	508.444
1124.01	494.667
1122.12	473.778
1120.22	474.444
1118.33	471.556
1116.44	473.556
1114.54	464.889
1112.65	452.444
1110.75	455.333
1108.86	467.333
1106.96	470.444
1105.07	484.444
1103.17	501.778
1101.27	496.667
1099.38	517.556
1097.48	511.778
1095.58	532.889
1093.68	548.222
1091.78	556.444
1089.88	566.889
1087.98	571.111
1086.08	584.445
1084.18	588.889
1082.28	572.889
1080.38	594
1078.47	578
1076.57	569.111
1074.67	578.222
1072.76	566.667
1070.86	571.333
1068.95	573.778
1067.05	592.889
1065.14	624.444
1063.24	626.889
1061.33	586.889
1059.42	554.222
1057.51	523.333
1055.6	490.222
1053.7	472.667
1051.79	458.444
1049.88	455.111
1047.97	447.556
1046.06	454.667
1044.14	445.333
1042.23	436.889
1040.32	448
1038.41	446.889
1036.5	434.667
1034.58	438.889
1032.67	445.111
1030.75	436.889
1028.84	437.111
1026.92	437.778
1025.01	437.111
1023.09	441.778
1021.17	439.333
1019.26	445.111
1017.34	440.444
1015.42	439.778
1013.5	443.556
1011.58	439.333
1009.66	428.222
1007.74	425.778
1005.82	417.778
1003.9	422.889
1001.98	426.667
1000.06	429.111
998.134	438.222
996.212	453.556
994.288	435.778
992.364	463.333
990.44	468
988.515	488.222
986.589	491.778
984.663	516.889
982.737	526.667
980.81	539.333
978.883	558.222
976.955	564.667
975.027	554.889
973.098	570.667
971.169	576.222
969.239	570.667
967.308	566.444
965.378	571.778
963.447	569.778
961.516	566
959.583	570
957.65	570
955.718	575.333
953.784	593.111
951.85	594.889
949.916	603.333
947.981	604.222
946.045	609.333
944.109	626
942.173	622.667
940.236	634
938.298	616.222
936.36	614.222
934.422	582
932.484	563.778
930.544	540.889
928.604	518
926.664	500.667
924.724	487.556
922.782	479.111
920.84	480
918.898	462.222
916.955	471.556
915.012	459.333
913.068	463.778
911.124	470.222
909.18	465.111
907.235	467.111
905.289	461.111
903.343	464.222
901.397	473.111
899.45	486.222
897.502	493.778
895.554	494.667
893.605	516.667
891.657	518.444
889.707	520.667
887.758	514.667
885.807	524
883.856	516.444
881.905	508.222
879.953	527.111
878.001	510
876.048	547.556
874.094	530.222
872.14	527.111
870.186	539.556
868.232	516.222
866.276	529.556
864.321	517.556
862.365	532
860.408	497.778
858.451	486
856.493	502.222
854.535	494.667
852.576	500.222
850.617	496.889
848.658	500.667
846.698	486.222
844.737	478.667
842.776	483.556
840.814	467.333
838.852	484.889
836.89	465.778
834.927	453.556
832.963	449.778
830.999	429.111
829.035	425.111
827.07	421.333
825.105	418.222
823.139	398.222
821.172	404.222
819.206	398.222
817.238	385.556
815.27	385.556
813.301	378.889
811.333	381.556
809.363	366.222
807.394	352.222
805.424	355.556
803.453	339.111
801.482	342.444
799.509	338
797.538	324.222
795.565	315.111
793.592	310.667
791.618	318.889
789.643	309.333
787.669	320.889
785.693	313.111
783.718	315.111
781.742	302.444
779.765	308.444
777.788	309.333
775.811	309.111
773.832	307.778
771.853	312.222
769.875	314.222
767.895	316.222
765.915	299.111
763.934	306.222
761.953	303.111
759.972	313.111
757.99	302
756.007	303.556
754.024	300.222
752.041	294.667
750.056	297.333
748.072	303.556
746.087	306
744.102	293.778
742.116	307.556
740.13	303.111
738.143	302
736.155	302
734.167	304.222
732.179	311.556
730.19	313.556
728.2	307.333
726.21	302
724.22	315.333
722.229	323.111
720.237	304.889
718.246	307.333
716.253	304.222
714.26	300.444
712.267	302.667
710.273	301.333
708.279	297.333
706.284	293.333
704.289	295.111
702.293	294
700.296	287.333
698.3	295.556
696.303	280.667
694.305	287.333
692.307	286.444
690.307	283.111
688.308	288.889
686.309	296.667
684.308	291.556
682.308	290.444
680.306	294.222
678.304	290.667
676.302	295.556
674.3	291.111
672.296	293.556
670.293	296.889
668.289	305.111
666.284	293.778
664.278	301.778
662.273	297.333
660.266	296.444
658.26	310.222
656.252	311.111
654.244	302.444
652.237	304
650.227	307.333
648.218	303.556
646.209	300
644.198	311.333
642.188	305.778
640.177	301.556
638.165	313.333
636.153	318.444
634.14	317.333
632.128	322.222
630.113	320
628.099	331.778
626.085	321.778
624.07	323.556
622.054	334.444
620.038	332.667
618.021	338.667
616.004	345.556
613.986	334.222
611.968	339.111
609.949	340.667
607.93	345.111
605.911	346.889
603.891	348.444
601.87	340
599.848	342.889
597.827	327.333
595.805	336
593.782	329.111
591.759	322.667
589.735	315.111
587.711	328
585.687	327.333
583.661	328.889
581.636	330.889
579.609	312.444
577.583	314.889
575.555	320.222
573.527	325.778
571.5	319.778
569.471	328
567.441	334.222
565.412	337.556
563.382	339.111
561.351	343.111
559.32	350.222
557.289	359.111
555.257	367.333
553.223	365.333
551.19	381.556
549.157	392
547.122	401.111
545.088	422.667
543.053	444.667
541.017	476.444
538.981	522.222
536.943	606.444
534.907	710.889
532.869	912
530.831	1248.44
528.792	1861.33
526.752	2830.22
524.713	4375.78
522.673	5877.56
520.632	6211.11
518.591	5221.78
516.549	3790.67
514.507	2543.78
512.464	1640.67
510.42	1111.56
508.377	824.889
506.332	665.778
504.288	574
502.242	518.889
500.196	490.444
498.15	468.667
496.104	457.111
494.056	442.444
492.008	432.444
489.96	421.111
487.911	424
485.862	423.111
483.812	416.222
481.761	398.667
479.71	411.111
477.659	388.667
475.607	394.667
473.555	407.111
471.502	388.444
469.448	383.111
467.395	386.889
465.34	379.556
463.285	374.222
461.23	378.889
459.174	378.889
457.118	372
455.061	386
453.003	389.778
450.945	392
448.887	394.889
446.828	396.889
444.768	402.667
442.708	404.222
440.647	408.889
438.587	420.667
436.525	415.111
434.463	416
432.4	427.556
430.337	421.556
428.274	428.667
426.21	434.222
424.145	431.556
422.079	422.222
420.014	429.778
417.948	429.778
415.882	432.667
413.814	443.333
411.746	430
409.679	435.556
407.609	435.111
405.54	448
403.47	444.889
401.401	452
399.329	435.333
397.258	444.889
395.187	451.556
393.114	438.222
391.041	442.667
388.968	452.889
386.895	449.778
384.82	462.889
382.745	463.111
380.67	455.333
378.594	456.444
376.517	467.778
374.44	464
372.363	459.333
370.286	470
368.207	464
366.128	475.556
364.049	476.222
361.969	481.111
359.888	487.333
357.807	485.556
355.725	477.778
353.643	496.444
351.561	489.333
349.477	476
347.394	493.556
345.31	494.667
343.226	506.889
341.141	498.222
339.055	512
336.968	506.444
334.882	514.222
332.795	515.778
330.707	530.444
328.618	539.778
326.53	542.667
324.44	554.222
322.351	569.111
320.26	584
318.17	594.444
316.078	609.556
313.987	643.778
311.895	662.222
309.802	698.222
307.708	714
305.614	740
303.52	744
301.425	724.222
299.329	727.111
297.233	693.556
295.137	681.333
293.039	669.111
290.942	647.556
288.844	645.778
286.745	622.889
284.647	618.667
282.546	624.667
280.446	635.556
278.346	611.556
276.245	628.889
274.143	627.778
272.041	625.333
269.939	628.222
267.835	622.667
265.731	648.667
263.627	629.111
261.522	630.889
259.417	641.556
257.311	639.111
255.204	644.444
253.098	655.556
250.99	645.111
248.882	655.778
246.774	653.333
244.664	657.333
242.555	654.444
240.445	666.667
238.334	677.111
236.223	679.556
234.112	703.556
232	712
229.888	704.444
227.775	719.778
225.661	712
223.546	720.222
221.431	717.556
219.316	720.889
217.201	730.444
215.084	720
212.967	718.222
210.85	719.556
208.732	706.444
206.614	728.222
204.495	724.445
202.375	714.444
200.256	716.667
198.135	718.444
196.014	717.778
193.893	712.889
191.771	706.444
189.648	728.444
187.525	723.778
185.401	730.222
183.277	728.667
181.152	720.444
179.027	738
176.901	733.556
174.775	741.333
172.648	738.889
170.521	754.889
168.393	765.555
166.265	777.111
164.136	782.222
162.007	788.222
159.876	806
157.746	829.111
155.615	827.556
153.483	841.778
151.351	856.444
149.219	877.111
147.086	918.444
144.952	937.556
142.818	963.778
140.684	986.444
138.548	996.667
136.413	1033.33
134.276	1062.44
132.139	1083.78
130.002	1108.44
127.864	1150.22
125.725	1157.56
123.587	1212.89
121.447	1255.56
119.307	1267.56
117.166	1320.44
115.026	1351.56
112.885	1411.33
110.743	1464.89
108.6	1495.78
106.456	1543.11
104.313	1550.67
102.169	1560.89
100.023	1514.22
97.8789	1443.78
95.7328	1332.67
93.5869	1182.22
91.4392	1016.67
89.2919	832.667
87.1447	667.111
84.9959	531.556
