3528.51	232
3527.23	247.5
3525.95	257
3524.67	272
3523.39	264.5
3522.1	259
3520.82	266
3519.54	260.5
3518.26	273.5
3516.97	267
3515.69	259
3514.4	287.5
3513.12	266
3511.84	291
3510.55	282
3509.26	295.5
3507.98	302.5
3506.69	286
3505.41	290
3504.12	298.5
3502.83	296.5
3501.54	322.5
3500.26	307.5
3498.97	311.5
3497.68	316.5
3496.39	314.5
3495.1	322.5
3493.81	319.5
3492.52	315
3491.23	345
3489.94	341
3488.65	353
3487.36	367
3486.07	368.5
3484.78	363.5
3483.49	379
3482.19	380.5
3480.9	382.5
3479.61	375.5
3478.31	378
3477.02	398.5
3475.73	394
3474.43	398.5
3473.14	402
3471.84	400.5
3470.54	393
3469.25	425.5
3467.95	418.5
3466.66	426.5
3465.36	424.5
3464.06	414.5
3462.76	423
3461.46	435
3460.17	423
3458.87	431.5
3457.57	428.5
3456.27	431.5
3454.97	458
3453.67	448.5
3452.37	456
3451.07	448
3449.77	440
3448.47	468
3447.16	463
3445.86	479
3444.56	474.5
3443.26	490.5
3441.95	498
3440.65	522
3439.35	528
3438.04	521.5
3436.74	541
3435.43	555.5
3434.13	556.5
3432.82	545.5
3431.52	557.5
3430.21	583.5
3428.9	584.5
3427.6	608
3426.29	624
3424.98	617
3423.67	650.5
3422.36	646
3421.06	655
3419.75	650
3418.44	631
3417.13	636
3415.82	668.5
3414.51	676.5
3413.2	675
3411.88	692
3410.57	708
3409.26	719.5
3407.95	718.5
3406.64	751.5
3405.32	718
3404.01	739
3402.7	727.5
3401.38	750.5
3400.07	746.5
3398.75	756
3397.44	754
3396.12	771
3394.81	771.5
3393.49	778.5
3392.18	801.5
3390.86	802.5
3389.54	814
3388.23	815.5
3386.91	833
3385.59	814
3384.27	821
3382.95	845.5
3381.63	872
3380.31	832.5
3378.99	875.5
3377.67	881
3376.35	877.5
3375.03	881.5
3373.71	872
3372.39	893.5
3371.07	902
3369.75	901
3368.42	913.5
3367.1	920.5
3365.78	951.5
3364.45	923
3363.13	955
3361.81	955
3360.48	971
3359.16	976.5
3357.83	974
3356.51	961.5
3355.18	972
3353.85	990
3352.53	1001
3351.2	979
3349.87	1022.5
3348.54	1008
3347.22	1006
3345.89	1002
3344.56	1021
3343.23	1009.5
3341.9	996
3340.57	1022
3339.24	1005
3337.91	1020
3336.58	1050.5
3335.25	1050.5
3333.92	1059.5
3332.58	1069.5
3331.25	1070
3329.92	1077.5
3328.59	1061
3327.25	1088
3325.92	1069.5
3324.58	1066.5
3323.25	1091
3321.92	1079
3320.58	1111.5
3319.25	1122.5
3317.91	1121
3316.57	1118.5
3315.24	1132.5
3313.9	1134
3312.56	1146
3311.23	1110
3309.89	1163.5
3308.55	1151
3307.21	1148.5
3305.87	1153
3304.53	1175.5
3303.19	1176
3301.85	1180.5
3300.51	1189.5
3299.17	1191
3297.83	1184.5
3296.49	1193
3295.15	1195
3293.81	1190.5
3292.46	1196.5
3291.12	1202.5
3289.78	1188
3288.43	1219.5
3287.09	1246.5
3285.75	1203
3284.4	1275.5
3283.06	1229.5
3281.71	1256
3280.37	1254.5
3279.02	1262.5
3277.67	1248.5
3276.33	1273.5
3274.98	1290.5
3273.63	1293
3272.28	1322
3270.94	1292.5
3269.59	1349.5
3268.24	1368
3266.89	1370
3265.54	1371
3264.19	1384.5
3262.84	1414
3261.49	1432
3260.14	1469
3258.79	1469
3257.44	1546
3256.08	1548
3254.73	1574
3253.38	1613
3252.03	1675.5
3250.67	1676
3249.32	1735
3247.96	1787
3246.61	1800.5
3245.26	1883
3243.9	1914.5
3242.54	1967
3241.19	2030
3239.83	2052.5
3238.48	2154.5
3237.12	2157.5
3235.76	2212
3234.41	2254.5
3233.05	2315.5
3231.69	2391
3230.33	2455.5
3228.97	2498
3227.61	2534
3226.25	2550
3224.89	2620.5
3223.53	2654
3222.17	2675.5
3220.81	2722.5
3219.45	2732.5
3218.09	2779
3216.72	2782.5
3215.36	2793.5
3214	2826
3212.63	2874.5
3211.27	2855.5
3209.91	2912
3208.54	2971
3207.18	2939
3205.81	2936
3204.45	2988
3203.08	2978
3201.71	3022.5
3200.35	3024.5
3198.98	3029
3197.61	3046
3196.25	3057
3194.88	3095.5
3193.51	3074
3192.14	3077.5
3190.77	3117.5
3189.4	3094
3188.03	3201.5
3186.66	3161
3185.29	3190.5
3183.92	3176
3182.55	3229
3181.18	3222
3179.81	3268.5
3178.44	3304.5
3177.06	3284.5
3175.69	3341
3174.32	3358.5
3172.94	3392
3171.57	3423
3170.2	3449
3168.82	3466
3167.45	3489.5
3166.07	3512.5
3164.69	3548
3163.32	3565.5
3161.94	3570.5
3160.56	3649
3159.19	3660
3157.81	3649
3156.43	3639
3155.05	3711.5
3153.67	3689.5
3152.3	3788.5
3150.92	3761.5
3149.54	3833
3148.16	3821.5
3146.78	3848
3145.4	3903.5
3144.01	3921
3142.63	3979
3141.25	4010
3139.87	4030.5
3138.49	4002.5
3137.1	4062.5
3135.72	4064
3134.34	4079.5
3132.95	4117
3131.57	4161.5
3130.18	4223.5
3128.8	4274.5
3127.41	4275
3126.03	4270.5
3124.64	4284
3123.25	4348
3121.87	4346
3120.48	4386
3119.09	4417.5
3117.7	4431
3116.32	4505.5
3114.93	4488
3113.54	4506.5
3112.15	4493
3110.76	4501.5
3109.37	4525.5
3107.98	4566
3106.59	4533
3105.2	4582
3103.8	4642
3102.41	4596
3101.02	4697.5
3099.63	4646
3098.23	4670
3096.84	4704.5
3095.45	4732.5
3094.05	4708
3092.66	4709
3091.26	4774.5
3089.87	4742
3088.47	4720.5
3087.08	4828.5
3085.68	4777.5
3084.28	4821
3082.89	4842.5
3081.49	4816
3080.09	4816.5
3078.69	4906.5
3077.3	4855
3075.9	4897
3074.5	4944
3073.1	4953
3071.7	4934.5
3070.3	4984
3068.9	4933.5
3067.5	4927
3066.09	4991
3064.69	4993
3063.29	5025
3061.89	5056
3060.48	5036.5
3059.08	5064
3057.68	5092
3056.27	5054
3054.87	5129
3053.46	5162
3052.06	5155
3050.65	5227
3049.25	5240
3047.84	5213
3046.44	5208
3045.03	5267
3043.62	5230
3042.21	5245.5
3040.81	5256.5
3039.4	5316
3037.99	5312
3036.58	5317
3035.17	5400.5
3033.76	5386
3032.35	5341
3030.94	5430
3029.53	5437
3028.12	5431.5
3026.71	5374.5
3025.29	5419.5
3023.88	5423
3022.47	5432
3021.06	5450
3019.64	5465
3018.23	5454
3016.82	5480
3015.4	5493
3013.99	5536.5
3012.57	5488.5
3011.15	5511
3009.74	5559.5
3008.32	5511
3006.91	5541.5
3005.49	5580.5
3004.07	5588
3002.65	5609.5
3001.24	5685
2999.82	5614
2998.4	5723
2996.98	5707.5
2995.56	5730
2994.14	5766
2992.72	5793
2991.3	5800.5
2989.88	5910
2988.46	5892
2987.03	5932.5
2985.61	5957
2984.19	5982
2982.77	6022
2981.34	6096
2979.92	6067
2978.49	6081.5
2977.07	6130.5
2975.65	6131
2974.22	6208
2972.79	6217.5
2971.37	6254.5
2969.94	6269.5
2968.52	6310
2967.09	6336.5
2965.66	6293
2964.23	6360
2962.81	6374.5
2961.38	6361
2959.95	6343
2958.52	6398.5
2957.09	6434
2955.66	6394
2954.23	6424
2952.8	6407.5
2951.37	6463
2949.94	6523.5
2948.5	6427
2947.07	6433
2945.64	6492
2944.21	6547
2942.77	6581.5
2941.34	6481
2939.91	6600
2938.47	6613
2937.04	6665.5
2935.6	6684
2934.17	6719
2932.73	6756.5
2931.29	6748.5
2929.86	6819.5
2928.42	6789.5
2926.98	6815
2925.55	6792
2924.11	6852
2922.67	6850
2921.23	6800
2919.79	6860
2918.35	6882.5
2916.91	6867
2915.47	6874.5
2914.03	6923.5
2912.59	6913.5
2911.15	6924
2909.71	6925.5
2908.26	7015
2906.82	7000.5
2905.38	7002.5
2903.94	7074.5
2902.49	7029.5
2901.05	7057.5
2899.6	7050
2898.16	7097.5
2896.71	7086.5
2895.27	7124
2893.82	7086
2892.38	7041.5
2890.93	7096.5
2889.48	7161
2888.03	7065.5
2886.59	7095.5
2885.14	7159
2883.69	7105
2882.24	7116.5
2880.79	7204.5
2879.34	7200.5
2877.89	7143
2876.44	7179.5
2874.99	7149
2873.54	7156
2872.09	7185
2870.64	7193.5
2869.18	7172.5
2867.73	7213
2866.28	7233.5
2864.83	7227.5
2863.37	7205
2861.92	7204.5
2860.46	7141
2859.01	7317
2857.55	7255
2856.1	7302
2854.64	7268.5
2853.19	7286
2851.73	7276
2850.27	7220.5
2848.81	7216
2847.36	7267
2845.9	7249.5
2844.44	7203
2842.98	7199.5
2841.52	7209.5
2840.06	7145.5
2838.6	7216
2837.14	7172
2835.68	7100
2834.22	7154.5
2832.76	7062
2831.3	7050.5
2829.83	7114
2828.37	7056
2826.91	6979.5
2825.44	6975.5
2823.98	7056.5
2822.52	6978.5
2821.05	6949
2819.59	6991
2818.12	6971
2816.66	6996.5
2815.19	6962.5
2813.72	6876
2812.26	6928
2810.79	6875
2809.32	6940.5
2807.85	6947
2806.38	6846
2804.92	6912.5
2803.45	6907.5
2801.98	6943
2800.51	6841
2799.04	6892
2797.57	6853
2796.1	6836.5
2794.62	6843.5
2793.15	6787
2791.68	6845
2790.21	6843
2788.73	6807
2787.26	6886.5
2785.79	6838
2784.31	6871
2782.84	6792
2781.36	6804.5
2779.89	6775
2778.41	6866.5
2776.94	6822
2775.46	6858.5
2773.99	6935
2772.51	6882
2771.03	6902.5
2769.55	6889.5
2768.07	6929.5
2766.6	6949.5
2765.12	6909
2763.64	6860
2762.16	6955
2760.68	6875
2759.2	6943
2757.72	6914
2756.24	6927
2754.75	6849
2753.27	6826.5
2751.79	6844
2750.31	6901
2748.82	6909
2747.34	6865
2745.86	6839.5
2744.37	6795.5
2742.89	6834.5
2741.4	6895
2739.92	6864.5
2738.43	6878.5
2736.94	6854
2735.46	6914.5
2733.97	6811
2732.48	6841
2731	6917.5
2729.51	6883.5
2728.02	6849
2726.53	6825
2725.04	6835
2723.55	6857.5
2722.06	6834
2720.57	6816
2719.08	6825
2717.59	6821
2716.1	6829
2714.61	6790.5
2713.11	6795
2711.62	6802.5
2710.13	6786.5
2708.64	6741
2707.14	6782.5
2705.65	6714
2704.15	6722
2702.66	6777
2701.16	6731.5
2699.67	6731
2698.17	6696
2696.67	6676
2695.18	6699
2693.68	6702.5
2692.18	6656.5
2690.69	6683
2689.19	6713.5
2687.69	6682.5
2686.19	6676
2684.69	6626
2683.19	6616.5
2681.69	6614
2680.19	6562
2678.69	6568
2677.19	6565.5
2675.68	6560.5
2674.18	6562
2672.68	6585
2671.18	6534
2669.67	6524.5
2668.17	6511
2666.66	6532
2665.16	6549
2663.66	6513.5
2662.15	6505.5
2660.64	6429
2659.14	6454
2657.63	6479
2656.13	6507.5
2654.62	6418
2653.11	6417
2651.6	6388
2650.09	6421.5
2648.58	6469.5
2647.08	6388.5
2645.57	6377
2644.06	6348
2642.55	6292.5
2641.04	6324
2639.52	6325
2638.01	6241
2636.5	6251
2634.99	6302.5
2633.48	6216
2631.96	6227.5
2630.45	6232.5
2628.94	6220.5
2627.42	6204
2625.91	6270
2624.39	6170.5
2622.88	6187.5
2621.36	6198
2619.85	6164.5
2618.33	6193.5
2616.81	6136
2615.3	6202
2613.78	6103.5
2612.26	6135
2610.74	6121.5
2609.22	6153
2607.7	6048.5
2606.18	6115
2604.66	6004
2603.14	6020.5
2601.62	5988
2600.1	5952.5
2598.58	5919
2597.06	5981
2595.54	5903
2594.01	5929.5
2592.49	5904
2590.97	5937.5
2589.44	5921.5
2587.92	5900.5
2586.39	5906
2584.87	5925
2583.34	5862
2581.82	5922
2580.29	5847
2578.76	5907
2577.24	5848
2575.71	5845
2574.18	5901.5
2572.65	5845.5
2571.13	5805.5
2569.6	5845
2568.07	5842.5
2566.54	5866.5
2565.01	5844.5
2563.48	5900.5
2561.95	5806.5
2560.42	5810
2558.88	5797.5
2557.35	5821
2555.82	5772
2554.29	5770.5
2552.75	5634
2551.22	5654
2549.69	5735
2548.15	5683
2546.62	5665
2545.08	5651
2543.55	5666.5
2542.01	5661.5
2540.47	5604.5
2538.94	5662
2537.4	5571
2535.86	5584.5
2534.33	5557
2532.79	5573
2531.25	5503.5
2529.71	5546
2528.17	5457.5
2526.63	5468.5
2525.09	5460
2523.55	5424
2522.01	5398
2520.47	5413.5
2518.92	5305
2517.38	5357
2515.84	5347.5
2514.3	5293
2512.75	5302.5
2511.21	5284.5
2509.67	5271
2508.12	5253.5
2506.58	5265.5
2505.03	5226
2503.49	5185.5
2501.94	5190
2500.39	5180.5
2498.85	5164.5
2497.3	5117.5
2495.75	5165.5
2494.2	5155
2492.65	5088
2491.11	5108
2489.56	5044.5
2488.01	5088.5
2486.46	5092
2484.91	5003.5
2483.36	5031
2481.8	4977.5
2480.25	4964.5
2478.7	4966
2477.15	4966
2475.6	4988.5
2474.04	4942.5
2472.49	4935
2470.93	4906
2469.38	4836
2467.83	4798
2466.27	4734
2464.71	4783.5
2463.16	4760.5
2461.6	4728.5
2460.05	4747.5
2458.49	4704
2456.93	4716
2455.37	4686.5
2453.81	4679.5
2452.26	4701
2450.7	4638.5
2449.14	4619.5
2447.58	4545
2446.02	4587
2444.46	4539.5
2442.9	4485
2441.33	4500.5
2439.77	4444
2438.21	4469
2436.65	4560
2435.08	4522.5
2433.52	4462
2431.96	4479.5
2430.39	4423.5
2428.83	4469.5
2427.26	4412.5
2425.7	4406.5
2424.13	4445.5
2422.56	4380.5
2421	4395
2419.43	4379.5
2417.86	4357.5
2416.3	4390
2414.73	4367.5
2413.16	4373
2411.59	4346.5
2410.02	4313.5
2408.45	4347.5
2406.88	4333.5
2405.31	4296
2403.74	4323
2402.17	4282
2400.6	4297.5
2399.02	4275
2397.45	4284.5
2395.88	4301
2394.3	4219
2392.73	4258
2391.16	4286.5
2389.58	4250
2388.01	4218.5
2386.43	4221
2384.86	4243
2383.28	4207.5
2381.7	4210.5
2380.13	4227.5
2378.55	4165
2376.97	4218
2375.39	4185
2373.81	4198
2372.23	4171.5
2370.65	4118
2369.07	4116.5
2367.49	4115.5
2365.91	4082
2364.33	4138
2362.75	4106.5
2361.17	4038.5
2359.59	4029
2358.01	4005
2356.42	4006
2354.84	4001
2353.25	3988
2351.67	3977.5
2350.09	4043
2348.5	3987
2346.92	4018.5
2345.33	3983.5
2343.74	3974
2342.16	3999
2340.57	4022
2338.98	3958.5
2337.39	3944
2335.81	3896.5
2334.22	3896
2332.63	3925
2331.04	3893
2329.45	3869
2327.86	3926
2326.27	3887
2324.68	3912.5
2323.09	3881.5
2321.49	3816
2319.9	3812
2318.31	3862.5
2316.72	3838
2315.12	3800
2313.53	3755.5
2311.93	3774.5
2310.34	3746
2308.74	3780
2307.15	3768
2305.55	3721
2303.96	3687.5
2302.36	3670
2300.76	3646
2299.17	3667
2297.57	3617.5
2295.97	3630
2294.37	3616.5
2292.77	3605.5
2291.17	3597.5
2289.57	3611.5
2287.97	3637.5
2286.37	3591.5
2284.77	3577
2283.17	3594.5
2281.57	3568
2279.96	3561.5
2278.36	3563.5
2276.76	3517.5
2275.15	3534.5
2273.55	3483
2271.95	3514
2270.34	3501
2268.74	3460
2267.13	3481.5
2265.52	3411.5
2263.92	3441
2262.31	3417
2260.7	3384
2259.1	3384.5
2257.49	3396
2255.88	3394.5
2254.27	3425
2252.66	3374
2251.05	3393.5
2249.44	3390.5
2247.83	3375
2246.22	3319
2244.61	3345.5
2243	3395
2241.39	3373
2239.77	3347.5
2238.16	3368.5
2236.55	3305
2234.93	3299
2233.32	3261.5
2231.7	3260.5
2230.09	3207
2228.47	3268
2226.86	3205
2225.24	3171.5
2223.63	3214.5
2222.01	3122
2220.39	3170
2218.77	3157.5
2217.16	3160
2215.54	3126.5
2213.92	3098
2212.3	3122.5
2210.68	3085
2209.06	3036
2207.44	3031.5
2205.82	3066
2204.19	3027
2202.57	3045.5
2200.95	3017
2199.33	2992
2197.7	3015.5
2196.08	3004
2194.46	3030
2192.83	2978.5
2191.21	3003
2189.58	2946.5
2187.96	2963
2186.33	2973.5
2184.7	2942.5
2183.08	2919
2181.45	2940
2179.82	2883
2178.19	2909.5
2176.57	2860
2174.94	2835
2173.31	2840.5
2171.68	2854
2170.05	2841
2168.42	2803
2166.79	2824.5
2165.16	2810
2163.52	2860.5
2161.89	2791
2160.26	2806
2158.63	2792.5
2156.99	2780
2155.36	2765.5
2153.73	2752.5
2152.09	2695
2150.46	2702
2148.82	2682
2147.18	2670.5
2145.55	2698.5
2143.91	2668
2142.27	2648.5
2140.64	2649.5
2139	2627
2137.36	2571
2135.72	2628
2134.08	2560
2132.44	2573
2130.8	2549
2129.16	2563
2127.52	2494
2125.88	2510.5
2124.24	2487
2122.6	2484.5
2120.95	2495
2119.31	2482
2117.67	2447.5
2116.02	2449
2114.38	2436
2112.74	2397
2111.09	2414
2109.45	2398.5
2107.8	2397
2106.15	2392.5
2104.51	2413
2102.86	2344
2101.21	2389.5
2099.56	2339
2097.92	2360.5
2096.27	2354.5
2094.62	2329
2092.97	2358.5
2091.32	2330.5
2089.67	2348.5
2088.02	2340.5
2086.37	2311
2084.72	2363
2083.06	2343
2081.41	2308.5
2079.76	2308.5
2078.1	2274
2076.45	2262
2074.8	2260
2073.14	2249.5
2071.49	2240.5
2069.83	2271.5
2068.18	2275
2066.52	2256.5
2064.86	2246
2063.21	2241
2061.55	2237
2059.89	2204.5
2058.23	2225.5
2056.57	2191
2054.92	2214.5
2053.26	2202
2051.6	2160.5
2049.94	2180.5
2048.27	2182
2046.61	2151
2044.95	2176.5
2043.29	2111
2041.63	2174.5
2039.97	2100
2038.3	2114.5
2036.64	2096
2034.97	2106.5
2033.31	2100
2031.64	2091
2029.98	2028.5
2028.31	2048
2026.65	2037.5
2024.98	2013
2023.31	2022.5
2021.65	1994.5
2019.98	1992.5
2018.31	1991
2016.64	1974
2014.97	1961
2013.3	1974.5
2011.63	1962.5
2009.96	1986
2008.29	1954.5
2006.62	1949
2004.95	1921
2003.28	1937
2001.6	1895.5
1999.93	1884
1998.26	1936
1996.58	1905.5
1994.91	1906
1993.24	1892.5
1991.56	1889
1989.89	1897
1988.21	1904
1986.53	1839
1984.86	1862.5
1983.18	1850.5
1981.5	1825
1979.82	1846
1978.15	1845
1976.47	1822
1974.79	1819
1973.11	1816
1971.43	1823.5
1969.75	1799
1968.07	1795
1966.38	1767
1964.7	1742
1963.02	1758.5
1961.34	1747
1959.66	1701
1957.97	1727.5
1956.29	1705.5
1954.6	1728
1952.92	1708.5
1951.23	1745
1949.55	1693.5
1947.86	1673
1946.18	1678.5
1944.49	1681.5
1942.8	1649.5
1941.11	1662.5
1939.43	1640
1937.74	1651
1936.05	1651
1934.36	1634.5
1932.67	1635
1930.98	1614
1929.29	1618
1927.6	1586.5
1925.91	1571.5
1924.21	1595
1922.52	1588
1920.83	1586.5
1919.14	1585.5
1917.44	1584
1915.75	1571.5
1914.05	1580
1912.36	1564.5
1910.66	1549.5
1908.97	1531.5
1907.27	1525.5
1905.58	1511
1903.88	1478.5
1902.18	1511
1900.48	1499
1898.79	1503.5
1897.09	1493
1895.39	1469.5
1893.69	1478
1891.99	1478.5
1890.29	1460.5
1888.59	1437
1886.89	1436.5
1885.18	1428.5
1883.48	1441.5
1881.78	1384.5
1880.08	1405
1878.37	1406
1876.67	1425
1874.96	1415.5
1873.26	1380
1871.55	1391.5
1869.85	1355.5
1868.14	1341.5
1866.44	1368.5
1864.73	1342
1863.02	1336.5
1861.32	1340.5
1859.61	1321.5
1857.9	1326.5
1856.19	1325.5
1854.48	1337
1852.77	1305
1851.06	1310.5
1849.35	1317.5
1847.64	1287
1845.93	1298
1844.21	1252.5
1842.5	1269
1840.79	1274
1839.08	1265
1837.36	1282
1835.65	1280
1833.93	1257.5
1832.22	1240.5
1830.5	1249
1828.79	1205
1827.07	1211
1825.36	1194
1823.64	1217.5
1821.92	1198.5
1820.2	1190.5
1818.48	1217
1816.77	1186.5
1815.05	1196
1813.33	1195
1811.61	1167
1809.89	1173.5
1808.16	1154
1806.44	1158.5
1804.72	1144.5
1803	1133.5
1801.28	1131
1799.55	1129
1797.83	1128.5
1796.11	1130.5
1794.38	1132
1792.66	1123.5
1790.93	1115.5
1789.21	1098
1787.48	1107
1785.75	1097
1784.03	1074
1782.3	1082.5
1780.57	1075
1778.84	1091
1777.11	1094
1775.38	1076
1773.66	1067
1771.93	1074.5
1770.19	1042
1768.46	1085.5
1766.73	1084
1765	1053
1763.27	1097
1761.54	1080.5
1759.8	1108.5
1758.07	1102.5
1756.34	1132
1754.6	1149.5
1752.87	1142.5
1751.13	1113
1749.4	1153
1747.66	1130
1745.92	1144
1744.19	1123
1742.45	1107
1740.71	1099
1738.97	1104.5
1737.23	1067.5
1735.49	1079
1733.75	1059
1732.01	1043
1730.27	1012.5
1728.53	1016.5
1726.79	1018
1725.05	996
1723.31	992
1721.57	976
1719.82	969
1718.08	978.5
1716.34	990.5
1714.59	975
1712.85	973.5
1711.1	953
1709.36	946
1707.61	941
1705.86	924
1704.12	939.5
1702.37	922
1700.62	937
1698.87	930
1697.12	928.5
1695.37	907.5
1693.62	915.5
1691.87	899
1690.12	897
1688.37	905
1686.62	878.5
1684.87	895
1683.12	882
1681.36	886
1679.61	900
1677.86	890
1676.1	913.5
1674.35	930.5
1672.59	920.5
1670.84	948.5
1669.08	967
1667.33	1006.5
1665.57	1045
1663.81	1098.5
1662.06	1165
1660.3	1194.5
1658.54	1227.5
1656.78	1243
1655.02	1205
1653.26	1147
1651.5	1102.5
1649.74	1059
1647.98	976
1646.22	975
1644.46	921.5
1642.7	881
1640.93	873
1639.17	873.5
1637.41	862
1635.64	832
1633.88	830
1632.11	810.5
1630.35	804
1628.58	804
1626.81	797
1625.05	800.5
1623.28	778
1621.51	785
1619.75	780.5
1617.98	781.5
1616.21	773
1614.44	779.5
1612.67	771
1610.9	762
1609.13	733.5
1607.36	754.5
1605.58	720.5
1603.81	725.5
1602.04	744.5
1600.27	737.5
1598.49	730
1596.72	736.5
1594.95	733.5
1593.17	734
1591.4	755
1589.62	729
1587.84	691
1586.07	718
1584.29	708
1582.51	699.5
1580.74	732.5
1578.96	708
1577.18	701
1575.4	683
1573.62	694.5
1571.84	704
1570.06	673
1568.28	699
1566.5	685
1564.72	657.5
1562.93	667.5
1561.15	658
1559.37	665
1557.58	698.5
1555.8	682.5
1554.02	668.5
1552.23	664
1550.45	680.5
1548.66	662
1546.87	665.5
1545.09	670
1543.3	653.5
1541.51	639
1539.72	645
1537.94	650
1536.15	616
1534.36	638
1532.57	641
1530.78	650
1528.99	635
1527.2	631.5
1525.4	615
1523.61	620
1521.82	620
1520.03	625
1518.23	624.5
1516.44	624.5
1514.65	630.5
1512.85	643.5
1511.06	639
1509.26	645.5
1507.46	624
1505.67	632
1503.87	629.5
1502.07	638.5
1500.28	638
1498.48	634
1496.68	643
1494.88	645.5
1493.08	664
1491.28	642.5
1489.48	657
1487.68	674
1485.88	680
1484.08	669
1482.27	678.5
1480.47	715.5
1478.67	726
1476.86	759
1475.06	787
1473.25	806.5
1471.45	878
1469.64	913.5
1467.84	945
1466.03	1015.5
1464.23	1075
1462.42	1095.5
1460.61	1122
1458.8	1181
1456.99	1224.5
1455.18	1242.5
1453.37	1271.5
1451.56	1313
1449.75	1331
1447.94	1381.5
1446.13	1424.5
1444.32	1479
1442.51	1482.5
1440.7	1496
1438.88	1429
1437.07	1378.5
1435.26	1261
1433.44	1139
1431.63	1064
1429.81	972
1427.99	876
1426.18	826.5
1424.36	771
1422.54	736
1420.73	730.5
1418.91	701
1417.09	694
1415.27	637
1413.45	635.5
1411.63	628
1409.81	609.5
1407.99	601
1406.17	581.5
1404.35	608
1402.53	566.5
1400.7	568
1398.88	576
1397.06	552.5
1395.23	551
1393.41	541
1391.58	553
1389.76	550.5
1387.93	536
1386.11	537
1384.28	534.5
1382.45	539
1380.62	518
1378.8	542
1376.97	548.5
1375.14	551.5
1373.31	546
1371.48	551
1369.65	562
1367.82	553.5
1365.99	554
1364.16	564.5
1362.32	551
1360.49	540
1358.66	550.5
1356.82	554
1354.99	545
1353.16	536
1351.32	550.5
1349.48	550
1347.65	551
1345.81	548
1343.98	557.5
1342.14	545
1340.3	535.5
1338.46	538
1336.62	570
1334.79	548.5
1332.95	588
1331.11	592.5
1329.27	615.5
1327.42	645.5
1325.58	668
1323.74	693.5
1321.9	726.5
1320.06	760.5
1318.21	772.5
1316.37	812.5
1314.53	838.5
1312.68	910.5
1310.84	946.5
1308.99	994.5
1307.15	1053
1305.3	1087
1303.45	1102.5
1301.61	1108.5
1299.76	1067
1297.91	993.5
1296.06	954
1294.21	895
1292.36	866
1290.51	818
1288.66	766.5
1286.81	768.5
1284.96	761
1283.11	749
1281.26	746
1279.4	752
1277.55	788
1275.7	768
1273.84	789
1271.99	808
1270.13	813
1268.28	802.5
1266.42	791
1264.56	808
1262.71	779.5
1260.85	783.5
1258.99	743
1257.13	726.5
1255.27	690.5
1253.41	654
1251.56	643
1249.7	607
1247.83	587.5
1245.97	587.5
1244.11	560.5
1242.25	549
1240.39	549
1238.52	524
1236.66	514
1234.8	484
1232.93	482
1231.07	486
1229.2	485.5
1227.34	470
1225.47	464
1223.6	449
1221.74	468
1219.87	467.5
1218	472
1216.13	452
1214.26	459.5
1212.39	441
1210.53	443
1208.65	425.5
1206.78	434
1204.91	437.5
1203.04	445.5
1201.17	438
1199.3	436
1197.42	426
1195.55	424.5
1193.68	411
1191.8	418
1189.93	406
1188.05	398.5
1186.17	429
1184.3	410.5
1182.42	411
1180.54	418
1178.67	415
1176.79	417
1174.91	424.5
1173.03	418
1171.15	420
1169.27	409.5
1167.39	404
1165.51	427
1163.63	413.5
1161.75	410.5
1159.86	409
1157.98	419
1156.1	418
1154.21	424.5
1152.33	426.5
1150.44	421
1148.56	398
1146.67	415.5
1144.79	437
1142.9	428.5
1141.01	438.5
1139.12	426.5
1137.24	442.5
1135.35	448.5
1133.46	490
1131.57	500
1129.68	536.5
1127.79	535
1125.9	562.5
1124.01	550
1122.12	554
1120.22	532
1118.33	546
1116.44	544.5
1114.54	528.5
1112.65	556.5
1110.75	546.5
1108.86	563
1106.96	536.5
1105.07	574.5
1103.17	574
1101.27	612.5
1099.38	614
1097.48	653.5
1095.58	678
1093.68	696
1091.78	753
1089.88	764
1087.98	785
1086.08	807
1084.18	826
1082.28	819
1080.38	817.5
1078.47	792
1076.57	793
1074.67	752
1072.76	752.5
1070.86	751.5
1068.95	755
1067.05	764.5
1065.14	757
1063.24	711
1061.33	704
1059.42	676
1057.51	642.5
1055.6	609
1053.7	597.5
1051.79	569
1049.88	574
1047.97	586
1046.06	577.5
1044.14	559
1042.23	554
1040.32	572.5
1038.41	560.5
1036.5	554
1034.58	547.5
1032.67	536.5
1030.75	532
1028.84	538
1026.92	527
1025.01	565
1023.09	534
1021.17	549
1019.26	552.5
1017.34	528.5
1015.42	516.5
1013.5	523.5
1011.58	525.5
1009.66	518
1007.74	511.5
1005.82	503.5
1003.9	504
1001.98	523
1000.06	533
998.134	524
996.212	513
994.288	535
992.364	540
990.44	536
988.515	558.5
986.589	585
984.663	613.5
982.737	615
980.81	663.5
978.883	667.5
976.955	686
975.027	705.5
973.098	742
971.169	694
969.239	690
967.308	704
965.378	680.5
963.447	664
961.516	666
959.583	671
957.65	692.5
955.718	684
953.784	700
951.85	705
949.916	720.5
947.981	723
946.045	717.5
944.109	722.5
942.173	739
940.236	719.5
938.298	748
936.36	730.5
934.422	729
932.484	694
930.544	668
928.604	631.5
926.664	627
924.724	612.5
922.782	624.5
920.84	622
918.898	606
916.955	612
915.012	628.5
913.068	612
911.124	598.5
909.18	621
907.235	621
905.289	611.5
903.343	608
901.397	620
899.45	604.5
897.502	638.5
895.554	658.5
893.605	664
891.657	691
889.707	673.5
887.758	693
885.807	702
883.856	705.5
881.905	688.5
879.953	705
878.001	709.5
876.048	754.5
874.094	746
872.14	749
870.186	717
868.232	734.5
866.276	729
864.321	704
862.365	698.5
860.408	696
858.451	691.5
856.493	691
854.535	700.5
852.576	691.5
850.617	693
848.658	678.5
846.698	708
844.737	707
842.776	687
840.814	663.5
838.852	654
836.89	652.5
834.927	617
832.963	596.5
830.999	574
829.035	575.5
827.07	555
825.105	533.5
823.139	511
821.172	514
819.206	499.5
817.238	478
815.27	488.5
813.301	462
811.333	469
809.363	438
807.394	433.5
805.424	417
803.453	411.5
801.482	410.5
799.509	383.5
797.538	392
795.565	398.5
793.592	374.5
791.618	383.5
789.643	373
787.669	361.5
785.693	359
783.718	364.5
781.742	372.5
779.765	371.5
777.788	373.5
775.811	378
773.832	365
771.853	364.5
769.875	362
767.895	366
765.915	369.5
763.934	363
761.953	370
759.972	375
757.99	363.5
756.007	367.5
754.024	346.5
752.041	356.5
750.056	362
748.072	364
746.087	353.5
744.102	355
742.116	349
740.13	375
738.143	370
736.155	366
734.167	384
732.179	365
730.19	389
728.2	384
726.21	386.5
724.22	372
722.229	363.5
720.237	377
718.246	366.5
716.253	359.5
714.26	364.5
712.267	354
710.273	341
708.279	343
706.284	341.5
704.289	321.5
702.293	321.5
700.296	326
698.3	315
696.303	323.5
694.305	324
692.307	316
690.307	327
688.308	325
686.309	331.5
684.308	324
682.308	333
680.306	321.5
678.304	317.5
676.302	318.5
674.3	336
672.296	328
670.293	318.5
668.289	325
666.284	330.5
664.278	359.5
662.273	345
660.266	341.5
658.26	338
656.252	327.5
654.244	333.5
652.237	334
650.227	332.5
648.218	346.5
646.209	346.5
644.198	352.5
642.188	341
640.177	363.5
638.165	358
636.153	359.5
634.14	368.5
632.128	355.5
630.113	353.5
628.099	373.5
626.085	382
624.07	370
622.054	393.5
620.038	384
618.021	399.5
616.004	391
613.986	394
611.968	400.5
609.949	412
607.93	401
605.911	406
603.891	389.5
601.87	400
599.848	387.5
597.827	404.5
595.805	399.5
593.782	377.5
591.759	395.5
589.735	377
587.711	371.5
585.687	363
583.661	377
581.636	376.5
579.609	368.5
577.583	370.5
575.555	371.5
573.527	370
571.5	361
569.471	386.5
567.441	391
565.412	383
563.382	361.5
561.351	369.5
559.32	375.5
557.289	396
555.257	386.5
553.223	421.5
551.19	430.5
549.157	451.5
547.122	461
545.088	466
543.053	500.5
541.017	522
538.981	579.5
536.943	670.5
534.907	804
532.869	1021.5
530.831	1400
528.792	2081
526.752	3113.5
524.713	4674.5
522.673	5773.5
520.632	5689
518.591	4632
516.549	3399.5
514.507	2288
512.464	1564
510.42	1123.5
508.377	839.5
506.332	704.5
504.288	631.5
502.242	574.5
500.196	575.5
498.15	544
496.104	529
494.056	512.5
492.008	501
489.96	487.5
487.911	492
485.862	499.5
483.812	484
481.761	470
479.71	472
477.659	479
475.607	457
473.555	469
471.502	465
469.448	471
467.395	464
465.34	437.5
463.285	471.5
461.23	450
459.174	478
457.118	472.5
455.061	486.5
453.003	472.5
450.945	477
448.887	477.5
446.828	507
444.768	491.5
442.708	487.5
440.647	483.5
438.587	501
436.525	499
434.463	507.5
432.4	530.5
430.337	519.5
428.274	520
426.21	513.5
424.145	511.5
422.079	522.5
420.014	531.5
417.948	520
415.882	522
413.814	532.5
411.746	551.5
409.679	556.5
407.609	551.5
405.54	556.5
403.47	551.5
401.401	542.5
399.329	535
397.258	542
395.187	519.5
393.114	544
391.041	546.5
388.968	547
386.895	541
384.82	556.5
382.745	567
380.67	551
378.594	571.5
376.517	575
374.44	572
372.363	576
370.286	572.5
368.207	578.5
366.128	573.5
364.049	601.5
361.969	597
359.888	591
357.807	606.5
355.725	618.5
353.643	608
351.561	590
349.477	611
347.394	606.5
345.31	606
343.226	612
341.141	629
339.055	623.5
336.968	613
334.882	644
332.795	661
330.707	660.5
328.618	669
326.53	657.5
324.44	677
322.351	708.5
320.26	709.5
318.17	733.5
316.078	747.5
313.987	778
311.895	793.5
309.802	830
307.708	855.5
305.614	868
303.52	881
301.425	865.5
299.329	856
297.233	839
295.137	836
293.039	817
290.942	821
288.844	824
286.745	809
284.647	802
282.546	820
280.446	813.5
278.346	809
276.245	818
274.143	831
272.041	816
269.939	833
267.835	861.5
265.731	837
263.627	865.5
261.522	853
259.417	876.5
257.311	883.5
255.204	886.5
253.098	895
250.99	908.5
248.882	887
246.774	944.5
244.664	918.5
242.555	930.5
240.445	969
238.334	966
236.223	983.5
234.112	989.5
232	995
229.888	988.5
227.775	997
225.661	1011
223.546	1009
221.431	1026
219.316	1016
217.201	1055
215.084	1061.5
212.967	1074
210.85	1069
208.732	1061.5
206.614	1041
204.495	1019
202.375	1032.5
200.256	1057
198.135	1038.5
196.014	1046.5
193.893	1020
191.771	1040.5
189.648	1050
187.525	1031
185.401	1023
183.277	1046
181.152	1048.5
179.027	1048
176.901	1032.5
174.775	1034
172.648	1050.5
170.521	1065
168.393	1103.5
166.265	1110
164.136	1098
162.007	1114
159.876	1123
157.746	1149.5
155.615	1146
153.483	1179
151.351	1212.5
149.219	1221.5
147.086	1269.5
144.952	1318.5
142.818	1359
140.684	1386
138.548	1426
136.413	1467.5
134.276	1491
132.139	1544.5
130.002	1584.5
127.864	1633
125.725	1690.5
123.587	1743.5
121.447	1821.5
119.307	1881
117.166	1928
115.026	2009.5
112.885	2076.5
110.743	2129.5
108.6	2223.5
106.456	2286
104.313	2262
102.169	2239.5
100.023	2151
97.8789	2002
95.7328	1822
93.5869	1592
91.4392	1368
89.2919	1099
87.1447	891.5
84.9959	699
