3528.51	138
3527.23	151.5
3525.95	147
3524.67	156
3523.39	153
3522.1	164
3520.82	159.5
3519.54	161
3518.26	159.5
3516.97	163
3515.69	169
3514.4	168
3513.12	164.5
3511.84	164.5
3510.55	166
3509.26	170.5
3507.98	169
3506.69	177.5
3505.41	179
3504.12	175.5
3502.83	184.5
3501.54	189.5
3500.26	188.5
3498.97	199
3497.68	195
3496.39	199
3495.1	200
3493.81	212.5
3492.52	208
3491.23	210.5
3489.94	205.5
3488.65	215.5
3487.36	215.5
3486.07	227
3484.78	211
3483.49	237
3482.19	233.5
3480.9	249
3479.61	238
3478.31	243.5
3477.02	248
3475.73	242
3474.43	250
3473.14	242.5
3471.84	253
3470.54	261
3469.25	264
3467.95	262
3466.66	249
3465.36	273.5
3464.06	266
3462.76	272
3461.46	271
3460.17	270
3458.87	275
3457.57	284
3456.27	277.5
3454.97	276
3453.67	282.5
3452.37	295
3451.07	299.5
3449.77	292
3448.47	299.5
3447.16	307.5
3445.86	291.5
3444.56	316.5
3443.26	313.5
3441.95	315
3440.65	324.5
3439.35	334
3438.04	326.5
3436.74	348
3435.43	350
3434.13	359.5
3432.82	360.5
3431.52	365.5
3430.21	373.5
3428.9	386
3427.6	380.5
3426.29	367.5
3424.98	391
3423.67	409
3422.36	399.5
3421.06	420
3419.75	401
3418.44	410
3417.13	422.5
3415.82	430.5
3414.51	432.5
3413.2	439
3411.88	444.5
3410.57	443.5
3409.26	440
3407.95	451.5
3406.64	453
3405.32	464.5
3404.01	465
3402.7	470.5
3401.38	476.5
3400.07	482
3398.75	476
3397.44	477
3396.12	488
3394.81	510.5
3393.49	502.5
3392.18	521.5
3390.86	526.5
3389.54	519
3388.23	542
3386.91	527.5
3385.59	537
3384.27	531.5
3382.95	529
3381.63	529.5
3380.31	538.5
3378.99	541.5
3377.67	538.5
3376.35	568.5
3375.03	554.5
3373.71	571
3372.39	574.5
3371.07	563
3369.75	585.5
3368.42	571
3367.1	584.5
3365.78	573
3364.45	584
3363.13	574
3361.81	609.5
3360.48	622
3359.16	616.5
3357.83	617.5
3356.51	606
3355.18	624
3353.85	620
3352.53	624.5
3351.2	629
3349.87	622
3348.54	633
3347.22	631.5
3345.89	647.5
3344.56	633
3343.23	640.5
3341.9	653
3340.57	651.5
3339.24	633.5
3337.91	652
3336.58	660
3335.25	666
3333.92	649.5
3332.58	662
3331.25	665
3329.92	672
3328.59	663
3327.25	643
3325.92	667
3324.58	690.5
3323.25	682
3321.92	694.5
3320.58	685.5
3319.25	694.5
3317.91	704
3316.57	697.5
3315.24	700.5
3313.9	712
3312.56	718
3311.23	736.5
3309.89	717
3308.55	717.5
3307.21	730.5
3305.87	714.5
3304.53	723.5
3303.19	756
3301.85	747.5
3300.51	735
3299.17	749.5
3297.83	744.5
3296.49	763.5
3295.15	761
3293.81	753
3292.46	744
3291.12	777
3289.78	774.5
3288.43	782.5
3287.09	766
3285.75	786
3284.4	784.5
3283.06	795.5
3281.71	798
3280.37	813
3279.02	817
3277.67	798.5
3276.33	809
3274.98	822
3273.63	810.5
3272.28	855
3270.94	845
3269.59	870
3268.24	844
3266.89	888
3265.54	892.5
3264.19	917
3262.84	905.5
3261.49	945
3260.14	940
3258.79	972.5
3257.44	988
3256.08	1008.5
3254.73	1023.5
3253.38	1051
3252.03	1095
3250.67	1114.5
3249.32	1121.5
3247.96	1159.5
3246.61	1171.5
3245.26	1234.5
3243.9	1253
3242.54	1269.5
3241.19	1291.5
3239.83	1327
3238.48	1374.5
3237.12	1397.5
3235.76	1448.5
3234.41	1474.5
3233.05	1477
3231.69	1506
3230.33	1510
3228.97	1593
3227.61	1604
3226.25	1621
3224.89	1653.5
3223.53	1676.5
3222.17	1686.5
3220.81	1696
3219.45	1734.5
3218.09	1768.5
3216.72	1737
3215.36	1772.5
3214	1778.5
3212.63	1806.5
3211.27	1820.5
3209.91	1799.5
3208.54	1843
3207.18	1848
3205.81	1849
3204.45	1878
3203.08	1869
3201.71	1892.5
3200.35	1869.5
3198.98	1872.5
3197.61	1901.5
3196.25	1918.5
3194.88	1919.5
3193.51	1952.5
3192.14	1919.5
3190.77	1952.5
3189.4	1993.5
3188.03	1984
3186.66	1992
3185.29	2012
3183.92	2017
3182.55	2015
3181.18	2045
3179.81	2049.5
3178.44	2070.5
3177.06	2064.5
3175.69	2076.5
3174.32	2103.5
3172.94	2105.5
3171.57	2126
3170.2	2143.5
3168.82	2152
3167.45	2178
3166.07	2209.5
3164.69	2218
3163.32	2238.5
3161.94	2259
3160.56	2260.5
3159.19	2282.5
3157.81	2289.5
3156.43	2291.5
3155.05	2313.5
3153.67	2341
3152.3	2362
3150.92	2352.5
3149.54	2415.5
3148.16	2385.5
3146.78	2412.5
3145.4	2437
3144.01	2444
3142.63	2458.5
3141.25	2489
3139.87	2521
3138.49	2539.5
3137.1	2551.5
3135.72	2558.5
3134.34	2588
3132.95	2613.5
3131.57	2586.5
3130.18	2639
3128.8	2649.5
3127.41	2683.5
3126.03	2668.5
3124.64	2700
3123.25	2733
3121.87	2732.5
3120.48	2741
3119.09	2750
3117.7	2759
3116.32	2774.5
3114.93	2775.5
3113.54	2808
3112.15	2819.5
3110.76	2802.5
3109.37	2862
3107.98	2905
3106.59	2867.5
3105.2	2873.5
3103.8	2903.5
3102.41	2889.5
3101.02	2889
3099.63	2921.5
3098.23	2937
3096.84	2957.5
3095.45	2963
3094.05	2960.5
3092.66	2992
3091.26	2964
3089.87	2978.5
3088.47	2982
3087.08	3017.5
3085.68	2997
3084.28	3020.5
3082.89	3050
3081.49	3008.5
3080.09	3062.5
3078.69	3072
3077.3	3041
3075.9	3042
3074.5	3087
3073.1	3115
3071.7	3139.5
3070.3	3092.5
3068.9	3051
3067.5	3171.5
3066.09	3113.5
3064.69	3147
3063.29	3172.5
3061.89	3127.5
3060.48	3162.5
3059.08	3172
3057.68	3178
3056.27	3176
3054.87	3228.5
3053.46	3183.5
3052.06	3247
3050.65	3254
3049.25	3270
3047.84	3280.5
3046.44	3253
3045.03	3274.5
3043.62	3279.5
3042.21	3343.5
3040.81	3334
3039.4	3340.5
3037.99	3341.5
3036.58	3376
3035.17	3319.5
3033.76	3346.5
3032.35	3390
3030.94	3397
3029.53	3386.5
3028.12	3363.5
3026.71	3423
3025.29	3420
3023.88	3395.5
3022.47	3402.5
3021.06	3365.5
3019.64	3421.5
3018.23	3430
3016.82	3424.5
3015.4	3434.5
3013.99	3436.5
3012.57	3478.5
3011.15	3458
3009.74	3468.5
3008.32	3500
3006.91	3484
3005.49	3478.5
3004.07	3498
3002.65	3524
3001.24	3551
2999.82	3602
2998.4	3606
2996.98	3592.5
2995.56	3617.5
2994.14	3642
2992.72	3608.5
2991.3	3642.5
2989.88	3658
2988.46	3709
2987.03	3682
2985.61	3776.5
2984.19	3751
2982.77	3790.5
2981.34	3823.5
2979.92	3811
2978.49	3843
2977.07	3849.5
2975.65	3848.5
2974.22	3875.5
2972.79	3911
2971.37	3879
2969.94	3923.5
2968.52	3952.5
2967.09	3976.5
2965.66	3981.5
2964.23	3955
2962.81	4002
2961.38	3998.5
2959.95	4008.5
2958.52	4071
2957.09	4093.5
2955.66	4097.5
2954.23	4076
2952.8	4092.5
2951.37	4087.5
2949.94	4091.5
2948.5	4127.5
2947.07	4114.5
2945.64	4146.5
2944.21	4116
2942.77	4195
2941.34	4189.5
2939.91	4194
2938.47	4231
2937.04	4226.5
2935.6	4281.5
2934.17	4310
2932.73	4321
2931.29	4317
2929.86	4330.5
2928.42	4374
2926.98	4333.5
2925.55	4403.5
2924.11	4407.5
2922.67	4388.5
2921.23	4413.5
2919.79	4368.5
2918.35	4398.5
2916.91	4426.5
2915.47	4406
2914.03	4500.5
2912.59	4442
2911.15	4514.5
2909.71	4452
2908.26	4451.5
2906.82	4445.5
2905.38	4488.5
2903.94	4494.5
2902.49	4513
2901.05	4527.5
2899.6	4520.5
2898.16	4555
2896.71	4550
2895.27	4545.5
2893.82	4548
2892.38	4552
2890.93	4552.5
2889.48	4542
2888.03	4562
2886.59	4574.5
2885.14	4582
2883.69	4603.5
2882.24	4641.5
2880.79	4561.5
2879.34	4580.5
2877.89	4589.5
2876.44	4589
2874.99	4598.5
2873.54	4602.5
2872.09	4577.5
2870.64	4606.5
2869.18	4651.5
2867.73	4596
2866.28	4632
2864.83	4617
2863.37	4628.5
2861.92	4650
2860.46	4601.5
2859.01	4637
2857.55	4665
2856.1	4658
2854.64	4672
2853.19	4664.5
2851.73	4669
2850.27	4629
2848.81	4636
2847.36	4673.5
2845.9	4636.5
2844.44	4603.5
2842.98	4583
2841.52	4531
2840.06	4543
2838.6	4546
2837.14	4497.5
2835.68	4484.5
2834.22	4485
2832.76	4470
2831.3	4439.5
2829.83	4475
2828.37	4377
2826.91	4406
2825.44	4411
2823.98	4475.5
2822.52	4378
2821.05	4403
2819.59	4367.5
2818.12	4359.5
2816.66	4384.5
2815.19	4352.5
2813.72	4338
2812.26	4391.5
2810.79	4345.5
2809.32	4319.5
2807.85	4284
2806.38	4274
2804.92	4265.5
2803.45	4320.5
2801.98	4305
2800.51	4306
2799.04	4272.5
2797.57	4242
2796.1	4302
2794.62	4307.5
2793.15	4224.5
2791.68	4265
2790.21	4255
2788.73	4240
2787.26	4217
2785.79	4231.5
2784.31	4260
2782.84	4238.5
2781.36	4280
2779.89	4299.5
2778.41	4306
2776.94	4249.5
2775.46	4278.5
2773.99	4322.5
2772.51	4277.5
2771.03	4300
2769.55	4297
2768.07	4309.5
2766.6	4334
2765.12	4245
2763.64	4305.5
2762.16	4336
2760.68	4278.5
2759.2	4316
2757.72	4302
2756.24	4257
2754.75	4292
2753.27	4253.5
2751.79	4266
2750.31	4318.5
2748.82	4273
2747.34	4288
2745.86	4315
2744.37	4276.5
2742.89	4306
2741.4	4280.5
2739.92	4283
2738.43	4298
2736.94	4259
2735.46	4228.5
2733.97	4303.5
2732.48	4291.5
2731	4278
2729.51	4261
2728.02	4293
2726.53	4263
2725.04	4253.5
2723.55	4286
2722.06	4344
2720.57	4250
2719.08	4285.5
2717.59	4282
2716.1	4222.5
2714.61	4294.5
2713.11	4273
2711.62	4221.5
2710.13	4259
2708.64	4239
2707.14	4248.5
2705.65	4200.5
2704.15	4203
2702.66	4219
2701.16	4219
2699.67	4194.5
2698.17	4159.5
2696.67	4200.5
2695.18	4170.5
2693.68	4154
2692.18	4198
2690.69	4180
2689.19	4170.5
2687.69	4187
2686.19	4154
2684.69	4159.5
2683.19	4162
2681.69	4122
2680.19	4085
2678.69	4099
2677.19	4079
2675.68	4122.5
2674.18	4144
2672.68	4117
2671.18	4074
2669.67	4095
2668.17	4132
2666.66	4077
2665.16	4090.5
2663.66	4113
2662.15	4069.5
2660.64	4095
2659.14	4049.5
2657.63	4068
2656.13	4046.5
2654.62	4053.5
2653.11	4016.5
2651.6	4039
2650.09	4071
2648.58	4011.5
2647.08	4059.5
2645.57	4058
2644.06	4022.5
2642.55	4006
2641.04	3975.5
2639.52	3961
2638.01	3976
2636.5	3943.5
2634.99	3948
2633.48	3907
2631.96	3905.5
2630.45	3891.5
2628.94	3871
2627.42	3891
2625.91	3891
2624.39	3885.5
2622.88	3888.5
2621.36	3852
2619.85	3899.5
2618.33	3872
2616.81	3854
2615.3	3827
2613.78	3866
2612.26	3840.5
2610.74	3839.5
2609.22	3856
2607.7	3825
2606.18	3745
2604.66	3791
2603.14	3767.5
2601.62	3735
2600.1	3734.5
2598.58	3771
2597.06	3674.5
2595.54	3702.5
2594.01	3688
2592.49	3724
2590.97	3741.5
2589.44	3684.5
2587.92	3726.5
2586.39	3716.5
2584.87	3665.5
2583.34	3687
2581.82	3677
2580.29	3695.5
2578.76	3697.5
2577.24	3664.5
2575.71	3669
2574.18	3661.5
2572.65	3671.5
2571.13	3664.5
2569.6	3708
2568.07	3673.5
2566.54	3690.5
2565.01	3656.5
2563.48	3684
2561.95	3605.5
2560.42	3653.5
2558.88	3643
2557.35	3611
2555.82	3592
2554.29	3563
2552.75	3525.5
2551.22	3599.5
2549.69	3555
2548.15	3601.5
2546.62	3554.5
2545.08	3480.5
2543.55	3571
2542.01	3499.5
2540.47	3512
2538.94	3493
2537.4	3501.5
2535.86	3478.5
2534.33	3463
2532.79	3444.5
2531.25	3441.5
2529.71	3394
2528.17	3417
2526.63	3405.5
2525.09	3380.5
2523.55	3387
2522.01	3345.5
2520.47	3349
2518.92	3349.5
2517.38	3374.5
2515.84	3355.5
2514.3	3309
2512.75	3281.5
2511.21	3301.5
2509.67	3276
2508.12	3265.5
2506.58	3275.5
2505.03	3266
2503.49	3255
2501.94	3255
2500.39	3248.5
2498.85	3236.5
2497.3	3234.5
2495.75	3200
2494.2	3194
2492.65	3233.5
2491.11	3201
2489.56	3156
2488.01	3164
2486.46	3160
2484.91	3150.5
2483.36	3125.5
2481.8	3097.5
2480.25	3077
2478.7	3108.5
2477.15	3095
2475.6	3127.5
2474.04	3033
2472.49	3069
2470.93	3030.5
2469.38	3003
2467.83	2996
2466.27	3023
2464.71	3015.5
2463.16	2993.5
2461.6	2994.5
2460.05	2974
2458.49	2966.5
2456.93	2952.5
2455.37	2938.5
2453.81	2947.5
2452.26	2976.5
2450.7	2929.5
2449.14	2952
2447.58	2924.5
2446.02	2864.5
2444.46	2867
2442.9	2881
2441.33	2815
2439.77	2853.5
2438.21	2840.5
2436.65	2872
2435.08	2831
2433.52	2806
2431.96	2796.5
2430.39	2821.5
2428.83	2805
2427.26	2743.5
2425.7	2758
2424.13	2762
2422.56	2783
2421	2760
2419.43	2741.5
2417.86	2762.5
2416.3	2712
2414.73	2720
2413.16	2755
2411.59	2715
2410.02	2693.5
2408.45	2697.5
2406.88	2738.5
2405.31	2715.5
2403.74	2698.5
2402.17	2721
2400.6	2698
2399.02	2696.5
2397.45	2649
2395.88	2731
2394.3	2647.5
2392.73	2664.5
2391.16	2665
2389.58	2646
2388.01	2627
2386.43	2666.5
2384.86	2672.5
2383.28	2636.5
2381.7	2642.5
2380.13	2646.5
2378.55	2675.5
2376.97	2662.5
2375.39	2588
2373.81	2577.5
2372.23	2615
2370.65	2613.5
2369.07	2587
2367.49	2560
2365.91	2563.5
2364.33	2568.5
2362.75	2543
2361.17	2532.5
2359.59	2560.5
2358.01	2525
2356.42	2540.5
2354.84	2523
2353.25	2483.5
2351.67	2523
2350.09	2494
2348.5	2532.5
2346.92	2505
2345.33	2516.5
2343.74	2482.5
2342.16	2478
2340.57	2545
2338.98	2476
2337.39	2447.5
2335.81	2438
2334.22	2447
2332.63	2431.5
2331.04	2433.5
2329.45	2436
2327.86	2453.5
2326.27	2462.5
2324.68	2419.5
2323.09	2433.5
2321.49	2385.5
2319.9	2419
2318.31	2418.5
2316.72	2395.5
2315.12	2359.5
2313.53	2335
2311.93	2372
2310.34	2318.5
2308.74	2341
2307.15	2302
2305.55	2313.5
2303.96	2273
2302.36	2294.5
2300.76	2291
2299.17	2253
2297.57	2278
2295.97	2262
2294.37	2263
2292.77	2262.5
2291.17	2250.5
2289.57	2259
2287.97	2248
2286.37	2241.5
2284.77	2239.5
2283.17	2188.5
2281.57	2235.5
2279.96	2206
2278.36	2198.5
2276.76	2202
2275.15	2203
2273.55	2163
2271.95	2179
2270.34	2185
2268.74	2154.5
2267.13	2198
2265.52	2130
2263.92	2139.5
2262.31	2119.5
2260.7	2116.5
2259.1	2099
2257.49	2102
2255.88	2101
2254.27	2072
2252.66	2087.5
2251.05	2096.5
2249.44	2086
2247.83	2104
2246.22	2055.5
2244.61	2084
2243	2101.5
2241.39	2085.5
2239.77	2047.5
2238.16	2047
2236.55	2012.5
2234.93	2028
2233.32	2000.5
2231.7	2018.5
2230.09	2005.5
2228.47	1997.5
2226.86	1985
2225.24	1989.5
2223.63	1973
2222.01	1991
2220.39	1972.5
2218.77	1917
2217.16	1959.5
2215.54	1941
2213.92	1933.5
2212.3	1927
2210.68	1950.5
2209.06	1938
2207.44	1927.5
2205.82	1944
2204.19	1922
2202.57	1919.5
2200.95	1893.5
2199.33	1888
2197.7	1878
2196.08	1871
2194.46	1885.5
2192.83	1857.5
2191.21	1876
2189.58	1874
2187.96	1860.5
2186.33	1860.5
2184.7	1858.5
2183.08	1844.5
2181.45	1851.5
2179.82	1809.5
2178.19	1811.5
2176.57	1815
2174.94	1811
2173.31	1793.5
2171.68	1783
2170.05	1797
2168.42	1756.5
2166.79	1752.5
2165.16	1788
2163.52	1775.5
2161.89	1746
2160.26	1742
2158.63	1717
2156.99	1720.5
2155.36	1724.5
2153.73	1732
2152.09	1709.5
2150.46	1689.5
2148.82	1666.5
2147.18	1673
2145.55	1702.5
2143.91	1639.5
2142.27	1637
2140.64	1647.5
2139	1648.5
2137.36	1657.5
2135.72	1653
2134.08	1630
2132.44	1618
2130.8	1611
2129.16	1580.5
2127.52	1549.5
2125.88	1590
2124.24	1570
2122.6	1561.5
2120.95	1551.5
2119.31	1556.5
2117.67	1554.5
2116.02	1568.5
2114.38	1552.5
2112.74	1538
2111.09	1543.5
2109.45	1530.5
2107.8	1525.5
2106.15	1537
2104.51	1504
2102.86	1513.5
2101.21	1502.5
2099.56	1506.5
2097.92	1501.5
2096.27	1482
2094.62	1474.5
2092.97	1502
2091.32	1467.5
2089.67	1494
2088.02	1498.5
2086.37	1471
2084.72	1478.5
2083.06	1472.5
2081.41	1487
2079.76	1446.5
2078.1	1472.5
2076.45	1431.5
2074.8	1435
2073.14	1452.5
2071.49	1434.5
2069.83	1423.5
2068.18	1431
2066.52	1418.5
2064.86	1409
2063.21	1407
2061.55	1393.5
2059.89	1401.5
2058.23	1404
2056.57	1389
2054.92	1364
2053.26	1396.5
2051.6	1377
2049.94	1371.5
2048.27	1384
2046.61	1365.5
2044.95	1365.5
2043.29	1375
2041.63	1371
2039.97	1346.5
2038.3	1350
2036.64	1321
2034.97	1334.5
2033.31	1309
2031.64	1306.5
2029.98	1290
2028.31	1305.5
2026.65	1290
2024.98	1314
2023.31	1289.5
2021.65	1254.5
2019.98	1265.5
2018.31	1256.5
2016.64	1290
2014.97	1265
2013.3	1250
2011.63	1261.5
2009.96	1242.5
2008.29	1253.5
2006.62	1245
2004.95	1229
2003.28	1231
2001.6	1238.5
1999.93	1212
1998.26	1228.5
1996.58	1218.5
1994.91	1194.5
1993.24	1199
1991.56	1183.5
1989.89	1199.5
1988.21	1173
1986.53	1188
1984.86	1160
1983.18	1151.5
1981.5	1153
1979.82	1149.5
1978.15	1159.5
1976.47	1155
1974.79	1136.5
1973.11	1142
1971.43	1152.5
1969.75	1117.5
1968.07	1130
1966.38	1108.5
1964.7	1105
1963.02	1107
1961.34	1124
1959.66	1083.5
1957.97	1072
1956.29	1085
1954.6	1104.5
1952.92	1108
1951.23	1066.5
1949.55	1084.5
1947.86	1084.5
1946.18	1088.5
1944.49	1050
1942.8	1062.5
1941.11	1044
1939.43	1059
1937.74	1056
1936.05	1034.5
1934.36	1054
1932.67	1028
1930.98	1020.5
1929.29	1026.5
1927.6	1038.5
1925.91	1020
1924.21	1001
1922.52	971.5
1920.83	980
1919.14	985
1917.44	992
1915.75	989
1914.05	1008.5
1912.36	986
1910.66	975
1908.97	978.5
1907.27	974
1905.58	961
1903.88	970.5
1902.18	969
1900.48	943
1898.79	958.5
1897.09	931.5
1895.39	945
1893.69	931.5
1891.99	933
1890.29	908.5
1888.59	935
1886.89	920.5
1885.18	920
1883.48	922.5
1881.78	891
1880.08	894.5
1878.37	902.5
1876.67	885
1874.96	891.5
1873.26	894
1871.55	862
1869.85	831
1868.14	856.5
1866.44	863
1864.73	870
1863.02	860
1861.32	842.5
1859.61	859
1857.9	829
1856.19	831.5
1854.48	837
1852.77	834.5
1851.06	826.5
1849.35	837
1847.64	819
1845.93	811
1844.21	836.5
1842.5	800
1840.79	809
1839.08	804
1837.36	781.5
1835.65	786
1833.93	804.5
1832.22	789.5
1830.5	810.5
1828.79	802.5
1827.07	775
1825.36	793.5
1823.64	773.5
1821.92	769.5
1820.2	758.5
1818.48	766
1816.77	778
1815.05	751
1813.33	756
1811.61	768
1809.89	749.5
1808.16	757.5
1806.44	742
1804.72	750.5
1803	752.5
1801.28	724.5
1799.55	723
1797.83	719
1796.11	727
1794.38	721.5
1792.66	716.5
1790.93	726
1789.21	715
1787.48	702
1785.75	698.5
1784.03	704.5
1782.3	708.5
1780.57	690.5
1778.84	701.5
1777.11	687.5
1775.38	686
1773.66	705.5
1771.93	693.5
1770.19	700.5
1768.46	705.5
1766.73	713
1765	696
1763.27	709.5
1761.54	696
1759.8	711.5
1758.07	740
1756.34	738
1754.6	745.5
1752.87	747
1751.13	737.5
1749.4	773
1747.66	768.5
1745.92	755.5
1744.19	763
1742.45	750.5
1740.71	749
1738.97	728.5
1737.23	724.5
1735.49	702.5
1733.75	700
1732.01	684
1730.27	686.5
1728.53	664.5
1726.79	662
1725.05	653
1723.31	645.5
1721.57	641
1719.82	643
1718.08	634
1716.34	631
1714.59	639.5
1712.85	625.5
1711.1	607
1709.36	608.5
1707.61	619
1705.86	600.5
1704.12	612.5
1702.37	606.5
1700.62	602.5
1698.87	611
1697.12	596
1695.37	591
1693.62	587.5
1691.87	601.5
1690.12	605
1688.37	591
1686.62	585
1684.87	586
1683.12	587
1681.36	584.5
1679.61	590.5
1677.86	592
1676.1	604
1674.35	628.5
1672.59	643.5
1670.84	649
1669.08	674
1667.33	699.5
1665.57	724.5
1663.81	788
1662.06	822
1660.3	870
1658.54	892.5
1656.78	881.5
1655.02	846.5
1653.26	833.5
1651.5	788.5
1649.74	759
1647.98	705.5
1646.22	661.5
1644.46	640.5
1642.7	595
1640.93	614.5
1639.17	573.5
1637.41	568
1635.64	573.5
1633.88	547
1632.11	543.5
1630.35	550
1628.58	550
1626.81	537
1625.05	542.5
1623.28	528
1621.51	521.5
1619.75	521.5
1617.98	502
1616.21	519
1614.44	506.5
1612.67	509.5
1610.9	508
1609.13	508
1607.36	503.5
1605.58	500
1603.81	481
1602.04	499
1600.27	464
1598.49	492.5
1596.72	486.5
1594.95	505
1593.17	487.5
1591.4	481
1589.62	489
1587.84	492.5
1586.07	498.5
1584.29	484
1582.51	480.5
1580.74	477
1578.96	465.5
1577.18	460.5
1575.4	469.5
1573.62	493.5
1571.84	468
1570.06	479
1568.28	461.5
1566.5	465
1564.72	466
1562.93	460
1561.15	472.5
1559.37	465.5
1557.58	459.5
1555.8	459.5
1554.02	454
1552.23	467.5
1550.45	464.5
1548.66	448
1546.87	447.5
1545.09	458.5
1543.3	438
1541.51	451
1539.72	439
1537.94	444
1536.15	437
1534.36	442.5
1532.57	443
1530.78	439
1528.99	456.5
1527.2	436.5
1525.4	435
1523.61	431
1521.82	446.5
1520.03	426
1518.23	449
1516.44	431.5
1514.65	455.5
1512.85	433.5
1511.06	449.5
1509.26	450
1507.46	443
1505.67	435.5
1503.87	438.5
1502.07	446
1500.28	446
1498.48	452.5
1496.68	475
1494.88	447
1493.08	468.5
1491.28	457
1489.48	490.5
1487.68	482
1485.88	499.5
1484.08	501
1482.27	515.5
1480.47	529
1478.67	531.5
1476.86	561
1475.06	597.5
1473.25	624.5
1471.45	654
1469.64	702.5
1467.84	749.5
1466.03	793
1464.23	847
1462.42	876.5
1460.61	916.5
1458.8	945.5
1456.99	951
1455.18	999.5
1453.37	1018.5
1451.56	1046.5
1449.75	1073.5
1447.94	1126.5
1446.13	1185.5
1444.32	1217
1442.51	1229
1440.7	1232
1438.88	1197
1437.07	1119.5
1435.26	1038.5
1433.44	932.5
1431.63	840.5
1429.81	767.5
1427.99	696
1426.18	658.5
1424.36	639
1422.54	601
1420.73	581
1418.91	549.5
1417.09	541.5
1415.27	509.5
1413.45	485
1411.63	475.5
1409.81	464
1407.99	462.5
1406.17	461.5
1404.35	448
1402.53	444
1400.7	444
1398.88	448.5
1397.06	428
1395.23	413
1393.41	399
1391.58	405.5
1389.76	390
1387.93	394.5
1386.11	410.5
1384.28	414
1382.45	421
1380.62	414.5
1378.8	402.5
1376.97	399
1375.14	419
1373.31	431.5
1371.48	429
1369.65	423.5
1367.82	416.5
1365.99	428.5
1364.16	417.5
1362.32	420.5
1360.49	418
1358.66	425.5
1356.82	444
1354.99	420
1353.16	419
1351.32	423
1349.48	409.5
1347.65	430.5
1345.81	421
1343.98	423.5
1342.14	423.5
1340.3	426
1338.46	425
1336.62	445
1334.79	446
1332.95	470
1331.11	471
1329.27	498
1327.42	519
1325.58	524
1323.74	543
1321.9	583
1320.06	618
1318.21	634.5
1316.37	651
1314.53	701.5
1312.68	745.5
1310.84	785.5
1308.99	816
1307.15	859
1305.3	916.5
1303.45	926.5
1301.61	929.5
1299.76	934
1297.91	894
1296.06	823.5
1294.21	791.5
1292.36	721
1290.51	674.5
1288.66	655
1286.81	627
1284.96	614
1283.11	624
1281.26	626.5
1279.4	634
1277.55	624.5
1275.7	622.5
1273.84	635
1271.99	659
1270.13	649
1268.28	647
1266.42	652.5
1264.56	647
1262.71	633
1260.85	621.5
1258.99	620.5
1257.13	600
1255.27	568
1253.41	552
1251.56	539
1249.7	498.5
1247.83	480
1245.97	456.5
1244.11	452.5
1242.25	438.5
1240.39	444.5
1238.52	427
1236.66	437.5
1234.8	395
1232.93	409.5
1231.07	401
1229.2	388
1227.34	387.5
1225.47	374
1223.6	373.5
1221.74	373.5
1219.87	374
1218	362
1216.13	354
1214.26	354.5
1212.39	361
1210.53	355
1208.65	369
1206.78	329.5
1204.91	340
1203.04	348.5
1201.17	347
1199.3	352
1197.42	341.5
1195.55	342
1193.68	347.5
1191.8	350
1189.93	354
1188.05	346.5
1186.17	336.5
1184.3	341.5
1182.42	330
1180.54	339.5
1178.67	340.5
1176.79	345.5
1174.91	352
1173.03	339.5
1171.15	357
1169.27	342
1167.39	334
1165.51	340
1163.63	335.5
1161.75	336.5
1159.86	343
1157.98	336
1156.1	346.5
1154.21	351
1152.33	369.5
1150.44	359
1148.56	356
1146.67	359.5
1144.79	359
1142.9	367
1141.01	360.5
1139.12	372.5
1137.24	394.5
1135.35	403
1133.46	438
1131.57	465.5
1129.68	482.5
1127.79	496
1125.9	506.5
1124.01	495
1122.12	481
1120.22	501.5
1118.33	476
1116.44	428
1114.54	476
1112.65	465
1110.75	461.5
1108.86	460
1106.96	474.5
1105.07	491
1103.17	497
1101.27	525
1099.38	554.5
1097.48	567
1095.58	578
1093.68	617.5
1091.78	610
1089.88	655
1087.98	668
1086.08	674
1084.18	690.5
1082.28	708
1080.38	697.5
1078.47	703.5
1076.57	673
1074.67	680
1072.76	659
1070.86	669.5
1068.95	674
1067.05	706.5
1065.14	694
1063.24	684
1061.33	658
1059.42	613
1057.51	551
1055.6	540.5
1053.7	530
1051.79	505
1049.88	499.5
1047.97	488.5
1046.06	470
1044.14	495
1042.23	499
1040.32	484.5
1038.41	491
1036.5	489
1034.58	477
1032.67	473
1030.75	466
1028.84	466.5
1026.92	471
1025.01	457
1023.09	463
1021.17	461
1019.26	459
1017.34	465
1015.42	463.5
1013.5	464.5
1011.58	453
1009.66	459
1007.74	433
1005.82	434
1003.9	450
1001.98	445.5
1000.06	432
998.134	433.5
996.212	426
994.288	449.5
992.364	473
990.44	468
988.515	484.5
986.589	504
984.663	541
982.737	526
980.81	553
978.883	591
976.955	578.5
975.027	584.5
973.098	639
971.169	604.5
969.239	616.5
967.308	600.5
965.378	581
963.447	586
961.516	591
959.583	585.5
957.65	604.5
955.718	592
953.784	607
951.85	600
949.916	623.5
947.981	615
946.045	634
944.109	645
942.173	633
940.236	632
938.298	638
936.36	620
934.422	620.5
932.484	593
930.544	577
928.604	556.5
926.664	571.5
924.724	547.5
922.782	533.5
920.84	555.5
918.898	549.5
916.955	538
915.012	550
913.068	544.5
911.124	529
909.18	557
907.235	542.5
905.289	548.5
903.343	540
901.397	525
899.45	549
897.502	563
895.554	584.5
893.605	596
891.657	627.5
889.707	632.5
887.758	639.5
885.807	619.5
883.856	610
881.905	630.5
879.953	638.5
878.001	629.5
876.048	648
874.094	636.5
872.14	646
870.186	647.5
868.232	647
866.276	633
864.321	628
862.365	644.5
860.408	615
858.451	625.5
856.493	596
854.535	610
852.576	600.5
850.617	616
848.658	601.5
846.698	603.5
844.737	604.5
842.776	596.5
840.814	581.5
838.852	578
836.89	560
834.927	561.5
832.963	544
830.999	543
829.035	506.5
827.07	502.5
825.105	471.5
823.139	463.5
821.172	456
819.206	443
817.238	446
815.27	436
813.301	413.5
811.333	422
809.363	406
807.394	392
805.424	401.5
803.453	378
801.482	358
799.509	363
797.538	357
795.565	355.5
793.592	333
791.618	336
789.643	340
787.669	337
785.693	345
783.718	335.5
781.742	329.5
779.765	319
777.788	345
775.811	343
773.832	342
771.853	324
769.875	342
767.895	338
765.915	325.5
763.934	337
761.953	334.5
759.972	329
757.99	310.5
756.007	319
754.024	326.5
752.041	340.5
750.056	331.5
748.072	342.5
746.087	331
744.102	330.5
742.116	335
740.13	339
738.143	324
736.155	359.5
734.167	346
732.179	339
730.19	354.5
728.2	359
726.21	363
724.22	350.5
722.229	353
720.237	344.5
718.246	327.5
716.253	336
714.26	325
712.267	328
710.273	319
708.279	320.5
706.284	308
704.289	315
702.293	314.5
700.296	307
698.3	308.5
696.303	303
694.305	305.5
692.307	309
690.307	294
688.308	315
686.309	299
684.308	303.5
682.308	306.5
680.306	316.5
678.304	305
676.302	323
674.3	307.5
672.296	308.5
670.293	301.5
668.289	321.5
666.284	305.5
664.278	313
662.273	317
660.266	328.5
658.26	325.5
656.252	325
654.244	321.5
652.237	325.5
650.227	332
648.218	327.5
646.209	337.5
644.198	315.5
642.188	337.5
640.177	320
638.165	339.5
636.153	325
634.14	344
632.128	342
630.113	338
628.099	346.5
626.085	345
624.07	350
622.054	364.5
620.038	358
618.021	356.5
616.004	363.5
613.986	380.5
611.968	391
609.949	396
607.93	400.5
605.911	386
603.891	386
601.87	372
599.848	355.5
597.827	369
595.805	364
593.782	354.5
591.759	359
589.735	360
587.711	361.5
585.687	358
583.661	365.5
581.636	355.5
579.609	375.5
577.583	343
575.555	341
573.527	354
571.5	358.5
569.471	357
567.441	352.5
565.412	356.5
563.382	361
561.351	366
559.32	375.5
557.289	381
555.257	378.5
553.223	398.5
551.19	420
549.157	409.5
547.122	436
545.088	468
543.053	442.5
541.017	499
538.981	545
536.943	603
534.907	736
532.869	940
530.831	1240.5
528.792	1816.5
526.752	2737
524.713	4000
522.673	4933.5
520.632	4898.5
518.591	3990
516.549	2936.5
514.507	1997.5
512.464	1364.5
510.42	986
508.377	765
506.332	643
504.288	587.5
502.242	539.5
500.196	523.5
498.15	504
496.104	486
494.056	495.5
492.008	472.5
489.96	459
487.911	471
485.862	478
483.812	453
481.761	456
479.71	447.5
477.659	438
475.607	442
473.555	432
471.502	457
469.448	443.5
467.395	432.5
465.34	449.5
463.285	446
461.23	436
459.174	460
457.118	429
455.061	442
453.003	439.5
450.945	456.5
448.887	463.5
446.828	456.5
444.768	449
442.708	462.5
440.647	466
438.587	469.5
436.525	473
434.463	477
432.4	498
430.337	477
428.274	488
426.21	500
424.145	475
422.079	483.5
420.014	490
417.948	505
415.882	508
413.814	508.5
411.746	511
409.679	496.5
407.609	501
405.54	528.5
403.47	520.5
401.401	524.5
399.329	522
397.258	508.5
395.187	530.5
393.114	522
391.041	493
388.968	505
386.895	517
384.82	517.5
382.745	516
380.67	524.5
378.594	518.5
376.517	518
374.44	551.5
372.363	545.5
370.286	544
368.207	542
366.128	543
364.049	548
361.969	553.5
359.888	551.5
357.807	552
355.725	550
353.643	557.5
351.561	560
349.477	557.5
347.394	568.5
345.31	568
343.226	561
341.141	568
339.055	579
336.968	579.5
334.882	582.5
332.795	601.5
330.707	616
328.618	624
326.53	624
324.44	638
322.351	658.5
320.26	651
318.17	663
316.078	693
313.987	727.5
311.895	757
309.802	760
307.708	775.5
305.614	782
303.52	804.5
301.425	788.5
299.329	789.5
297.233	765.5
295.137	758.5
293.039	755.5
290.942	734
288.844	727
286.745	736
284.647	744
282.546	736
280.446	743
278.346	734
276.245	770
274.143	770
272.041	772
269.939	766
267.835	742
265.731	780.5
263.627	788
261.522	794
259.417	794.5
257.311	806
255.204	827.5
253.098	821
250.99	825.5
248.882	859.5
246.774	855
244.664	837
242.555	870
240.445	868.5
238.334	866
236.223	874
234.112	907.5
232	903.5
229.888	933.5
227.775	943.5
225.661	946.5
223.546	952.5
221.431	943
219.316	966.5
217.201	955.5
215.084	967
212.967	971.5
210.85	980.5
208.732	970.5
206.614	989.5
204.495	961.5
202.375	969.5
200.256	955
198.135	946
196.014	959
193.893	936
191.771	929.5
189.648	956.5
187.525	979.5
185.401	977
183.277	977
181.152	973.5
179.027	974.5
176.901	999.5
174.775	1022
172.648	994.5
170.521	1004
168.393	1022.5
166.265	1044.5
164.136	1029
162.007	1044.5
159.876	1080.5
157.746	1081
155.615	1142.5
153.483	1145
151.351	1174
149.219	1165
147.086	1201
144.952	1248
142.818	1297
140.684	1311.5
138.548	1339.5
136.413	1363
134.276	1433.5
132.139	1455
130.002	1503.5
127.864	1542.5
125.725	1592
123.587	1643.5
121.447	1745.5
119.307	1772
117.166	1826
115.026	1891.5
112.885	1950
110.743	2032
108.6	2096.5
106.456	2114.5
104.313	2141.5
102.169	2093.5
100.023	2037.5
97.8789	1890
95.7328	1715
93.5869	1470.5
91.4392	1263.5
89.2919	1031
87.1447	829
84.9959	623
