3528.51	113
3527.23	119.5
3525.95	108.5
3524.67	118
3523.39	132.5
3522.1	122
3520.82	123
3519.54	126
3518.26	145.5
3516.97	117
3515.69	135.5
3514.4	144.5
3513.12	111
3511.84	137
3510.55	122.5
3509.26	134
3507.98	117
3506.69	131.5
3505.41	133.5
3504.12	111
3502.83	136.5
3501.54	139
3500.26	151.5
3498.97	116
3497.68	150
3496.39	153
3495.1	148
3493.81	117
3492.52	164
3491.23	157
3489.94	137
3488.65	164.5
3487.36	150.5
3486.07	158
3484.78	144
3483.49	136
3482.19	154
3480.9	163
3479.61	180.5
3478.31	133.5
3477.02	159.5
3475.73	167
3474.43	159.5
3473.14	152
3471.84	159
3470.54	188
3469.25	165
3467.95	177
3466.66	188.5
3465.36	169
3464.06	199
3462.76	203
3461.46	197.5
3460.17	181
3458.87	206.5
3457.57	203
3456.27	197
3454.97	181.5
3453.67	188
3452.37	200.5
3451.07	179
3449.77	195.5
3448.47	183.5
3447.16	200
3445.86	228
3444.56	193.5
3443.26	224
3441.95	213.5
3440.65	223
3439.35	228
3438.04	216.5
3436.74	248
3435.43	211
3434.13	228.5
3432.82	249
3431.52	252
3430.21	254
3428.9	269
3427.6	237.5
3426.29	277.5
3424.98	268
3423.67	256
3422.36	238
3421.06	278.5
3419.75	292.5
3418.44	292.5
3417.13	289
3415.82	287
3414.51	296
3413.2	278.5
3411.88	295.5
3410.57	305.5
3409.26	279
3407.95	314.5
3406.64	296.5
3405.32	300.5
3404.01	311.5
3402.7	322
3401.38	318.5
3400.07	335
3398.75	316
3397.44	340.5
3396.12	310.5
3394.81	336.5
3393.49	323
3392.18	320
3390.86	346
3389.54	331
3388.23	338
3386.91	341
3385.59	338.5
3384.27	359
3382.95	355
3381.63	331.5
3380.31	357.5
3378.99	377.5
3377.67	386
3376.35	368
3375.03	371.5
3373.71	374.5
3372.39	348.5
3371.07	382
3369.75	390
3368.42	418.5
3367.1	399
3365.78	381
3364.45	373.5
3363.13	398.5
3361.81	396.5
3360.48	397.5
3359.16	381.5
3357.83	406.5
3356.51	402.5
3355.18	421
3353.85	407
3352.53	409.5
3351.2	429.5
3349.87	402.5
3348.54	432
3347.22	437
3345.89	444
3344.56	427.5
3343.23	467.5
3341.9	406.5
3340.57	424
3339.24	433
3337.91	430
3336.58	432.5
3335.25	454
3333.92	432.5
3332.58	421.5
3331.25	461.5
3329.92	412
3328.59	427.5
3327.25	472.5
3325.92	446.5
3324.58	456
3323.25	453
3321.92	429.5
3320.58	452.5
3319.25	441
3317.91	453
3316.57	455.5
3315.24	474
3313.9	483
3312.56	447.5
3311.23	440.5
3309.89	474
3308.55	488.5
3307.21	485.5
3305.87	502
3304.53	451
3303.19	515.5
3301.85	516.5
3300.51	484.5
3299.17	529.5
3297.83	490
3296.49	497
3295.15	519.5
3293.81	559.5
3292.46	522
3291.12	485.5
3289.78	492
3288.43	510.5
3287.09	515
3285.75	491
3284.4	507
3283.06	518
3281.71	522
3280.37	492
3279.02	497
3277.67	509
3276.33	540
3274.98	546
3273.63	546.5
3272.28	534.5
3270.94	523
3269.59	528
3268.24	480.5
3266.89	542
3265.54	559
3264.19	542
3262.84	568.5
3261.49	550
3260.14	537
3258.79	579.5
3257.44	571
3256.08	587
3254.73	588.5
3253.38	567
3252.03	618.5
3250.67	617
3249.32	613
3247.96	640
3246.61	667
3245.26	665
3243.9	681.5
3242.54	682
3241.19	725
3239.83	749.5
3238.48	727
3237.12	789
3235.76	783.5
3234.41	793
3233.05	838.5
3231.69	831.5
3230.33	883
3228.97	920
3227.61	889.5
3226.25	906
3224.89	956
3223.53	964
3222.17	967.5
3220.81	992.5
3219.45	1028
3218.09	1044
3216.72	1105
3215.36	1056
3214	1078
3212.63	1082.5
3211.27	1112
3209.91	1111
3208.54	1146.5
3207.18	1130
3205.81	1159
3204.45	1164.5
3203.08	1185.5
3201.71	1200
3200.35	1182.5
3198.98	1201.5
3197.61	1230
3196.25	1221
3194.88	1178
3193.51	1201
3192.14	1209.5
3190.77	1198.5
3189.4	1245.5
3188.03	1207
3186.66	1233.5
3185.29	1252
3183.92	1275
3182.55	1303.5
3181.18	1244
3179.81	1283
3178.44	1279
3177.06	1266
3175.69	1303.5
3174.32	1329
3172.94	1319.5
3171.57	1349
3170.2	1332
3168.82	1355
3167.45	1360
3166.07	1356.5
3164.69	1382.5
3163.32	1397
3161.94	1395.5
3160.56	1419.5
3159.19	1441.5
3157.81	1434
3156.43	1461
3155.05	1467.5
3153.67	1510.5
3152.3	1436
3150.92	1508
3149.54	1509
3148.16	1519.5
3146.78	1498
3145.4	1539
3144.01	1502
3142.63	1539.5
3141.25	1593
3139.87	1589
3138.49	1573.5
3137.1	1603
3135.72	1608.5
3134.34	1596.5
3132.95	1585
3131.57	1657
3130.18	1657
3128.8	1663.5
3127.41	1658.5
3126.03	1636.5
3124.64	1705
3123.25	1679.5
3121.87	1711
3120.48	1699.5
3119.09	1707.5
3117.7	1715.5
3116.32	1786
3114.93	1730
3113.54	1731.5
3112.15	1771.5
3110.76	1806
3109.37	1827
3107.98	1777
3106.59	1822
3105.2	1820.5
3103.8	1773
3102.41	1842
3101.02	1865.5
3099.63	1803.5
3098.23	1831.5
3096.84	1831.5
3095.45	1887.5
3094.05	1885.5
3092.66	1875
3091.26	1885.5
3089.87	1851.5
3088.47	1873
3087.08	1870.5
3085.68	1917.5
3084.28	1883.5
3082.89	1951
3081.49	1973.5
3080.09	1924
3078.69	1973.5
3077.3	1929.5
3075.9	1944
3074.5	1944.5
3073.1	1982
3071.7	2002
3070.3	1992
3068.9	2008.5
3067.5	1997.5
3066.09	1991
3064.69	2025
3063.29	1980
3061.89	2014.5
3060.48	2032.5
3059.08	2010
3057.68	2030
3056.27	2075
3054.87	2037
3053.46	2015.5
3052.06	2054.5
3050.65	2095
3049.25	2046.5
3047.84	2041.5
3046.44	2062.5
3045.03	2108
3043.62	2100
3042.21	2084.5
3040.81	2088
3039.4	2097.5
3037.99	2105.5
3036.58	2067.5
3035.17	2119
3033.76	2148.5
3032.35	2115.5
3030.94	2152.5
3029.53	2153
3028.12	2116
3026.71	2191.5
3025.29	2147
3023.88	2197
3022.47	2168.5
3021.06	2167.5
3019.64	2172
3018.23	2123
3016.82	2166
3015.4	2166
3013.99	2182.5
3012.57	2168.5
3011.15	2224.5
3009.74	2224
3008.32	2210.5
3006.91	2229
3005.49	2234.5
3004.07	2250.5
3002.65	2189
3001.24	2266
2999.82	2277.5
2998.4	2230.5
2996.98	2229.5
2995.56	2257
2994.14	2280
2992.72	2295
2991.3	2347
2989.88	2290.5
2988.46	2355
2987.03	2323.5
2985.61	2340.5
2984.19	2354
2982.77	2355.5
2981.34	2353.5
2979.92	2360.5
2978.49	2437.5
2977.07	2458
2975.65	2401.5
2974.22	2415.5
2972.79	2449
2971.37	2474
2969.94	2468.5
2968.52	2506
2967.09	2489.5
2965.66	2521.5
2964.23	2484.5
2962.81	2621.5
2961.38	2577.5
2959.95	2550
2958.52	2591.5
2957.09	2584
2955.66	2578.5
2954.23	2627
2952.8	2623
2951.37	2621
2949.94	2621
2948.5	2608.5
2947.07	2609
2945.64	2639.5
2944.21	2675
2942.77	2658
2941.34	2647
2939.91	2699.5
2938.47	2686
2937.04	2715
2935.6	2709.5
2934.17	2720
2932.73	2739.5
2931.29	2742.5
2929.86	2795
2928.42	2810.5
2926.98	2795
2925.55	2819.5
2924.11	2804.5
2922.67	2847.5
2921.23	2809
2919.79	2810.5
2918.35	2818
2916.91	2856.5
2915.47	2832
2914.03	2810.5
2912.59	2833.5
2911.15	2875
2909.71	2833.5
2908.26	2874.5
2906.82	2880
2905.38	2894.5
2903.94	2858
2902.49	2910
2901.05	2896.5
2899.6	2927.5
2898.16	2901
2896.71	2922
2895.27	2916
2893.82	2913.5
2892.38	2916
2890.93	2905.5
2889.48	2953.5
2888.03	2921
2886.59	2950.5
2885.14	2950.5
2883.69	2914.5
2882.24	2901.5
2880.79	2926
2879.34	2953
2877.89	2916
2876.44	2915
2874.99	2903
2873.54	2886.5
2872.09	2890.5
2870.64	2926
2869.18	2947.5
2867.73	2927.5
2866.28	2979
2864.83	2969.5
2863.37	2975.5
2861.92	2956.5
2860.46	2876
2859.01	2951.5
2857.55	2984
2856.1	2925
2854.64	2959
2853.19	3006
2851.73	2958.5
2850.27	2958
2848.81	3011.5
2847.36	2974.5
2845.9	2980.5
2844.44	2947
2842.98	3010
2841.52	2919.5
2840.06	2947.5
2838.6	2899
2837.14	2904
2835.68	2874
2834.22	2883
2832.76	2820
2831.3	2842
2829.83	2855.5
2828.37	2828.5
2826.91	2813
2825.44	2800.5
2823.98	2763
2822.52	2816.5
2821.05	2762
2819.59	2762.5
2818.12	2769
2816.66	2720.5
2815.19	2742
2813.72	2645.5
2812.26	2753.5
2810.79	2711.5
2809.32	2746
2807.85	2695.5
2806.38	2761
2804.92	2730.5
2803.45	2694.5
2801.98	2752
2800.51	2668
2799.04	2718
2797.57	2741.5
2796.1	2710.5
2794.62	2693
2793.15	2705
2791.68	2635.5
2790.21	2678.5
2788.73	2687.5
2787.26	2659.5
2785.79	2654.5
2784.31	2641.5
2782.84	2704.5
2781.36	2675.5
2779.89	2683
2778.41	2635.5
2776.94	2668.5
2775.46	2677
2773.99	2662.5
2772.51	2667.5
2771.03	2669
2769.55	2649
2768.07	2649.5
2766.6	2667.5
2765.12	2617.5
2763.64	2641.5
2762.16	2685
2760.68	2626.5
2759.2	2635
2757.72	2642.5
2756.24	2662.5
2754.75	2626
2753.27	2722
2751.79	2649
2750.31	2643
2748.82	2648
2747.34	2640.5
2745.86	2633
2744.37	2661
2742.89	2626
2741.4	2631
2739.92	2572
2738.43	2624
2736.94	2641.5
2735.46	2652
2733.97	2636.5
2732.48	2660.5
2731	2616
2729.51	2612.5
2728.02	2683
2726.53	2660.5
2725.04	2655.5
2723.55	2676
2722.06	2617
2720.57	2622.5
2719.08	2678.5
2717.59	2637
2716.1	2658
2714.61	2646.5
2713.11	2670
2711.62	2637
2710.13	2623.5
2708.64	2636
2707.14	2613
2705.65	2622
2704.15	2564.5
2702.66	2586
2701.16	2603.5
2699.67	2589
2698.17	2552
2696.67	2550
2695.18	2571.5
2693.68	2548.5
2692.18	2569
2690.69	2547
2689.19	2557.5
2687.69	2547
2686.19	2518.5
2684.69	2520
2683.19	2571.5
2681.69	2557
2680.19	2565
2678.69	2455
2677.19	2543
2675.68	2552
2674.18	2556
2672.68	2481.5
2671.18	2500.5
2669.67	2531
2668.17	2501.5
2666.66	2543.5
2665.16	2522
2663.66	2463.5
2662.15	2486.5
2660.64	2516.5
2659.14	2523
2657.63	2482.5
2656.13	2469
2654.62	2500
2653.11	2487.5
2651.6	2477.5
2650.09	2420.5
2648.58	2484.5
2647.08	2485
2645.57	2472.5
2644.06	2488
2642.55	2457
2641.04	2483
2639.52	2442.5
2638.01	2492.5
2636.5	2477
2634.99	2455
2633.48	2471
2631.96	2423
2630.45	2412
2628.94	2467
2627.42	2385.5
2625.91	2404.5
2624.39	2372
2622.88	2421.5
2621.36	2469
2619.85	2406
2618.33	2436.5
2616.81	2372.5
2615.3	2420
2613.78	2412.5
2612.26	2376
2610.74	2407.5
2609.22	2388
2607.7	2357.5
2606.18	2381.5
2604.66	2381.5
2603.14	2384
2601.62	2348.5
2600.1	2355.5
2598.58	2338
2597.06	2355
2595.54	2304
2594.01	2283.5
2592.49	2322.5
2590.97	2355
2589.44	2285
2587.92	2257.5
2586.39	2350
2584.87	2339
2583.34	2279.5
2581.82	2332
2580.29	2302
2578.76	2294.5
2577.24	2298.5
2575.71	2302.5
2574.18	2289.5
2572.65	2304
2571.13	2283.5
2569.6	2317.5
2568.07	2223
2566.54	2248
2565.01	2266
2563.48	2202.5
2561.95	2191.5
2560.42	2226.5
2558.88	2220.5
2557.35	2275
2555.82	2225.5
2554.29	2185
2552.75	2202
2551.22	2246
2549.69	2198
2548.15	2162
2546.62	2209
2545.08	2241
2543.55	2192.5
2542.01	2176.5
2540.47	2197
2538.94	2186.5
2537.4	2172
2535.86	2188
2534.33	2093
2532.79	2117.5
2531.25	2158.5
2529.71	2133.5
2528.17	2105.5
2526.63	2149.5
2525.09	2124
2523.55	2080.5
2522.01	2147
2520.47	2115.5
2518.92	2056
2517.38	2050.5
2515.84	2119
2514.3	2029
2512.75	2057
2511.21	2063
2509.67	2071.5
2508.12	2041.5
2506.58	2026
2505.03	2020
2503.49	2035.5
2501.94	2005
2500.39	1995.5
2498.85	2016.5
2497.3	1972.5
2495.75	1978.5
2494.2	1954
2492.65	1988
2491.11	2021.5
2489.56	1993
2488.01	2034.5
2486.46	1933.5
2484.91	1967.5
2483.36	1937.5
2481.8	1960.5
2480.25	1967
2478.7	1970.5
2477.15	1932
2475.6	1928.5
2474.04	1927.5
2472.49	1913
2470.93	1861.5
2469.38	1901
2467.83	1869
2466.27	1899.5
2464.71	1894
2463.16	1879.5
2461.6	1873
2460.05	1842.5
2458.49	1889.5
2456.93	1865
2455.37	1847
2453.81	1849.5
2452.26	1870
2450.7	1842.5
2449.14	1821
2447.58	1791
2446.02	1809.5
2444.46	1776
2442.9	1780.5
2441.33	1816.5
2439.77	1771
2438.21	1749
2436.65	1749
2435.08	1741.5
2433.52	1802
2431.96	1785
2430.39	1765
2428.83	1776.5
2427.26	1730.5
2425.7	1809.5
2424.13	1775
2422.56	1706
2421	1743.5
2419.43	1685
2417.86	1763
2416.3	1733.5
2414.73	1686.5
2413.16	1697
2411.59	1700
2410.02	1713
2408.45	1657.5
2406.88	1685
2405.31	1717
2403.74	1687.5
2402.17	1639.5
2400.6	1640.5
2399.02	1679
2397.45	1674
2395.88	1630.5
2394.3	1634.5
2392.73	1618.5
2391.16	1656.5
2389.58	1634.5
2388.01	1654.5
2386.43	1639
2384.86	1632
2383.28	1619
2381.7	1628
2380.13	1632.5
2378.55	1636
2376.97	1632.5
2375.39	1620.5
2373.81	1594.5
2372.23	1619
2370.65	1650
2369.07	1592
2367.49	1610.5
2365.91	1616.5
2364.33	1580.5
2362.75	1602.5
2361.17	1574
2359.59	1523.5
2358.01	1595.5
2356.42	1559
2354.84	1531
2353.25	1513
2351.67	1582.5
2350.09	1556.5
2348.5	1511.5
2346.92	1547
2345.33	1552.5
2343.74	1535
2342.16	1552.5
2340.57	1542
2338.98	1534.5
2337.39	1518.5
2335.81	1508.5
2334.22	1504.5
2332.63	1504.5
2331.04	1504.5
2329.45	1522.5
2327.86	1533
2326.27	1522.5
2324.68	1495
2323.09	1532
2321.49	1481
2319.9	1485.5
2318.31	1439.5
2316.72	1466.5
2315.12	1488.5
2313.53	1477.5
2311.93	1454.5
2310.34	1441
2308.74	1424.5
2307.15	1482.5
2305.55	1432.5
2303.96	1476
2302.36	1467
2300.76	1462.5
2299.17	1438
2297.57	1436
2295.97	1435
2294.37	1402
2292.77	1394.5
2291.17	1442
2289.57	1397.5
2287.97	1357
2286.37	1412.5
2284.77	1356.5
2283.17	1376.5
2281.57	1362.5
2279.96	1354
2278.36	1380
2276.76	1340
2275.15	1334.5
2273.55	1338
2271.95	1321
2270.34	1318.5
2268.74	1299
2267.13	1332.5
2265.52	1340
2263.92	1317.5
2262.31	1297
2260.7	1268.5
2259.1	1324
2257.49	1288.5
2255.88	1312.5
2254.27	1305.5
2252.66	1281.5
2251.05	1240.5
2249.44	1264
2247.83	1281.5
2246.22	1250
2244.61	1273.5
2243	1268.5
2241.39	1302.5
2239.77	1245
2238.16	1242
2236.55	1215
2234.93	1257
2233.32	1221
2231.7	1258.5
2230.09	1236.5
2228.47	1224.5
2226.86	1218.5
2225.24	1208.5
2223.63	1157.5
2222.01	1202.5
2220.39	1210.5
2218.77	1221.5
2217.16	1167
2215.54	1214.5
2213.92	1164.5
2212.3	1182
2210.68	1192.5
2209.06	1156.5
2207.44	1181
2205.82	1186.5
2204.19	1155
2202.57	1157.5
2200.95	1196.5
2199.33	1157.5
2197.7	1189
2196.08	1174.5
2194.46	1164.5
2192.83	1160.5
2191.21	1126
2189.58	1129
2187.96	1111
2186.33	1104
2184.7	1107
2183.08	1074
2181.45	1091.5
2179.82	1099
2178.19	1084
2176.57	1109
2174.94	1095
2173.31	1114
2171.68	1141
2170.05	1092
2168.42	1082.5
2166.79	1064.5
2165.16	1120.5
2163.52	1083.5
2161.89	1121.5
2160.26	1048
2158.63	1059
2156.99	1071.5
2155.36	1054.5
2153.73	1014.5
2152.09	1081.5
2150.46	1056
2148.82	1040
2147.18	1065
2145.55	1075.5
2143.91	1036
2142.27	1038
2140.64	1048.5
2139	1028
2137.36	1048
2135.72	1030
2134.08	1029
2132.44	1000.5
2130.8	987.5
2129.16	977
2127.52	994.5
2125.88	974
2124.24	995
2122.6	978.5
2120.95	967
2119.31	962.5
2117.67	969.5
2116.02	940
2114.38	948.5
2112.74	948.5
2111.09	964.5
2109.45	943.5
2107.8	958
2106.15	941
2104.51	925
2102.86	907.5
2101.21	912
2099.56	924.5
2097.92	903
2096.27	933.5
2094.62	925.5
2092.97	896
2091.32	945.5
2089.67	891.5
2088.02	895.5
2086.37	923.5
2084.72	899
2083.06	888.5
2081.41	909
2079.76	911
2078.1	864
2076.45	891
2074.8	882.5
2073.14	884
2071.49	894.5
2069.83	872.5
2068.18	888
2066.52	854
2064.86	869
2063.21	871.5
2061.55	891
2059.89	839.5
2058.23	849
2056.57	871
2054.92	832
2053.26	852
2051.6	816
2049.94	867
2048.27	852.5
2046.61	822.5
2044.95	836.5
2043.29	860
2041.63	843
2039.97	820
2038.3	848
2036.64	822
2034.97	831.5
2033.31	859
2031.64	809.5
2029.98	824.5
2028.31	817.5
2026.65	813
2024.98	791
2023.31	807.5
2021.65	760.5
2019.98	824
2018.31	799.5
2016.64	807
2014.97	753.5
2013.3	769
2011.63	780.5
2009.96	750.5
2008.29	772.5
2006.62	784.5
2004.95	790
2003.28	758.5
2001.6	765.5
1999.93	771.5
1998.26	743.5
1996.58	775.5
1994.91	752.5
1993.24	761
1991.56	748.5
1989.89	754.5
1988.21	754.5
1986.53	732
1984.86	751.5
1983.18	705
1981.5	713
1979.82	729.5
1978.15	735
1976.47	709.5
1974.79	737.5
1973.11	720.5
1971.43	742.5
1969.75	700
1968.07	709.5
1966.38	703
1964.7	707
1963.02	697.5
1961.34	716
1959.66	687
1957.97	668
1956.29	714
1954.6	701.5
1952.92	717
1951.23	728.5
1949.55	697.5
1947.86	678
1946.18	680.5
1944.49	695
1942.8	704
1941.11	694
1939.43	689.5
1937.74	682
1936.05	686.5
1934.36	631
1932.67	647.5
1930.98	631
1929.29	664.5
1927.6	627
1925.91	618
1924.21	643
1922.52	656
1920.83	621.5
1919.14	658.5
1917.44	614
1915.75	639
1914.05	642
1912.36	642.5
1910.66	631
1908.97	618
1907.27	622.5
1905.58	580
1903.88	584.5
1902.18	578.5
1900.48	582
1898.79	620.5
1897.09	630
1895.39	599.5
1893.69	616.5
1891.99	587.5
1890.29	592.5
1888.59	583
1886.89	569.5
1885.18	563
1883.48	551.5
1881.78	560.5
1880.08	598
1878.37	567.5
1876.67	578.5
1874.96	569.5
1873.26	578
1871.55	568
1869.85	559
1868.14	531
1866.44	575
1864.73	541.5
1863.02	558
1861.32	574
1859.61	546
1857.9	555.5
1856.19	521
1854.48	532.5
1852.77	533
1851.06	528
1849.35	536
1847.64	546.5
1845.93	532.5
1844.21	537
1842.5	513
1840.79	559
1839.08	542.5
1837.36	528.5
1835.65	523
1833.93	526
1832.22	554
1830.5	509
1828.79	504
1827.07	536
1825.36	515
1823.64	523.5
1821.92	518.5
1820.2	501
1818.48	495
1816.77	509.5
1815.05	494
1813.33	521
1811.61	483.5
1809.89	488
1808.16	491.5
1806.44	490
1804.72	494.5
1803	458
1801.28	479
1799.55	479.5
1797.83	487.5
1796.11	482.5
1794.38	452
1792.66	465.5
1790.93	471
1789.21	469.5
1787.48	480
1785.75	438
1784.03	466
1782.3	465.5
1780.57	473.5
1778.84	440
1777.11	467
1775.38	459.5
1773.66	441
1771.93	466
1770.19	432.5
1768.46	447
1766.73	492
1765	469.5
1763.27	485.5
1761.54	437
1759.8	481
1758.07	465.5
1756.34	481
1754.6	512
1752.87	511.5
1751.13	483
1749.4	524.5
1747.66	521
1745.92	515.5
1744.19	514
1742.45	520.5
1740.71	491
1738.97	483
1737.23	481
1735.49	489
1733.75	489
1732.01	462
1730.27	469
1728.53	454
1726.79	459
1725.05	414
1723.31	443
1721.57	424.5
1719.82	433.5
1718.08	446.5
1716.34	402
1714.59	425.5
1712.85	437
1711.1	416.5
1709.36	427.5
1707.61	407.5
1705.86	422
1704.12	448.5
1702.37	432.5
1700.62	409
1698.87	413.5
1697.12	422
1695.37	420.5
1693.62	415
1691.87	422
1690.12	431
1688.37	417
1686.62	385
1684.87	427
1683.12	408
1681.36	405.5
1679.61	398.5
1677.86	397
1676.1	413.5
1674.35	435
1672.59	437
1670.84	460.5
1669.08	445
1667.33	510.5
1665.57	548
1663.81	538
1662.06	583
1660.3	653
1658.54	622.5
1656.78	627.5
1655.02	592.5
1653.26	598
1651.5	582.5
1649.74	534
1647.98	505
1646.22	478
1644.46	463.5
1642.7	448
1640.93	450
1639.17	408
1637.41	388.5
1635.64	388
1633.88	392.5
1632.11	399
1630.35	369
1628.58	392
1626.81	362.5
1625.05	387.5
1623.28	340
1621.51	379
1619.75	384
1617.98	376
1616.21	369
1614.44	352
1612.67	351
1610.9	354.5
1609.13	338
1607.36	356.5
1605.58	355
1603.81	354.5
1602.04	385.5
1600.27	359
1598.49	357.5
1596.72	344.5
1594.95	346
1593.17	383
1591.4	336.5
1589.62	325
1587.84	348
1586.07	356
1584.29	360.5
1582.51	369
1580.74	370
1578.96	344
1577.18	362
1575.4	347
1573.62	323
1571.84	365
1570.06	356.5
1568.28	353
1566.5	368.5
1564.72	329
1562.93	330
1561.15	361
1559.37	368.5
1557.58	363
1555.8	356.5
1554.02	338.5
1552.23	336
1550.45	366
1548.66	328
1546.87	334
1545.09	338
1543.3	338
1541.51	306.5
1539.72	334
1537.94	324.5
1536.15	352
1534.36	349.5
1532.57	329
1530.78	341
1528.99	311
1527.2	347.5
1525.4	335
1523.61	335
1521.82	357
1520.03	335
1518.23	305
1516.44	312.5
1514.65	369
1512.85	370
1511.06	336.5
1509.26	344.5
1507.46	359.5
1505.67	336
1503.87	327.5
1502.07	355.5
1500.28	352
1498.48	342
1496.68	352.5
1494.88	345
1493.08	337
1491.28	352
1489.48	366.5
1487.68	375.5
1485.88	425
1484.08	383
1482.27	402
1480.47	391.5
1478.67	433
1476.86	421
1475.06	487.5
1473.25	533.5
1471.45	515
1469.64	571.5
1467.84	601.5
1466.03	633
1464.23	664
1462.42	688.5
1460.61	749.5
1458.8	760
1456.99	749
1455.18	803
1453.37	840.5
1451.56	836
1449.75	865.5
1447.94	869
1446.13	918
1444.32	950
1442.51	998.5
1440.7	1007.5
1438.88	919.5
1437.07	915.5
1435.26	800
1433.44	706
1431.63	730.5
1429.81	607.5
1427.99	549
1426.18	548
1424.36	477
1422.54	501.5
1420.73	465
1418.91	426
1417.09	445
1415.27	430.5
1413.45	416.5
1411.63	402.5
1409.81	397
1407.99	410
1406.17	376.5
1404.35	368
1402.53	369
1400.7	350
1398.88	371
1397.06	343
1395.23	337.5
1393.41	345
1391.58	333
1389.76	311
1387.93	353
1386.11	344.5
1384.28	357
1382.45	351
1380.62	320.5
1378.8	324
1376.97	374
1375.14	376
1373.31	349.5
1371.48	345
1369.65	353
1367.82	355
1365.99	371.5
1364.16	384
1362.32	369
1360.49	352
1358.66	340
1356.82	383
1354.99	346
1353.16	332
1351.32	364
1349.48	306
1347.65	373.5
1345.81	363
1343.98	371
1342.14	380.5
1340.3	345
1338.46	371
1336.62	359
1334.79	367
1332.95	359.5
1331.11	374
1329.27	430
1327.42	439.5
1325.58	438
1323.74	462
1321.9	475
1320.06	485
1318.21	516.5
1316.37	562.5
1314.53	551
1312.68	612
1310.84	624
1308.99	662
1307.15	703.5
1305.3	739.5
1303.45	740
1301.61	772
1299.76	736
1297.91	706
1296.06	699
1294.21	635
1292.36	596.5
1290.51	552.5
1288.66	537
1286.81	545
1284.96	509
1283.11	473
1281.26	528.5
1279.4	510.5
1277.55	513
1275.7	528.5
1273.84	545.5
1271.99	519
1270.13	555
1268.28	550
1266.42	561
1264.56	535.5
1262.71	536
1260.85	512.5
1258.99	533.5
1257.13	475
1255.27	473
1253.41	438
1251.56	435
1249.7	442.5
1247.83	429.5
1245.97	392
1244.11	397
1242.25	378
1240.39	364
1238.52	369
1236.66	369
1234.8	334
1232.93	336
1231.07	346
1229.2	333.5
1227.34	315
1225.47	305.5
1223.6	326
1221.74	313
1219.87	315
1218	304
1216.13	309.5
1214.26	315.5
1212.39	318
1210.53	306
1208.65	313.5
1206.78	283
1204.91	325
1203.04	308.5
1201.17	307.5
1199.3	314
1197.42	309
1195.55	317
1193.68	316
1191.8	324
1189.93	299.5
1188.05	303.5
1186.17	328.5
1184.3	318
1182.42	311
1180.54	270
1178.67	325.5
1176.79	324.5
1174.91	323
1173.03	297.5
1171.15	311
1169.27	304
1167.39	319.5
1165.51	310
1163.63	303
1161.75	332
1159.86	322.5
1157.98	277
1156.1	319.5
1154.21	319
1152.33	301
1150.44	311
1148.56	306
1146.67	303
1144.79	339.5
1142.9	313.5
1141.01	306.5
1139.12	318
1137.24	327
1135.35	369.5
1133.46	367
1131.57	385
1129.68	427.5
1127.79	411
1125.9	415
1124.01	436
1122.12	407
1120.22	418
1118.33	412.5
1116.44	426
1114.54	393
1112.65	414
1110.75	404.5
1108.86	399.5
1106.96	421.5
1105.07	390
1103.17	452
1101.27	424
1099.38	474
1097.48	490.5
1095.58	548.5
1093.68	515
1091.78	529
1089.88	560
1087.98	578
1086.08	590
1084.18	576.5
1082.28	605.5
1080.38	606
1078.47	582
1076.57	603.5
1074.67	564
1072.76	578.5
1070.86	571
1068.95	561.5
1067.05	578
1065.14	614.5
1063.24	603
1061.33	596
1059.42	528
1057.51	498.5
1055.6	454
1053.7	493
1051.79	433
1049.88	449.5
1047.97	447
1046.06	427
1044.14	432
1042.23	442
1040.32	449
1038.41	456.5
1036.5	423
1034.58	440
1032.67	449
1030.75	433.5
1028.84	434
1026.92	386
1025.01	412.5
1023.09	439
1021.17	434.5
1019.26	446
1017.34	408.5
1015.42	419.5
1013.5	406
1011.58	405
1009.66	399
1007.74	397.5
1005.82	393.5
1003.9	404
1001.98	389.5
1000.06	373
998.134	399.5
996.212	386
994.288	394.5
992.364	413.5
990.44	411
988.515	450.5
986.589	448
984.663	445
982.737	431
980.81	447
978.883	508
976.955	515.5
975.027	488
973.098	526
971.169	515
969.239	538.5
967.308	485
965.378	534.5
963.447	484
961.516	487
959.583	512
957.65	481.5
955.718	507
953.784	538
951.85	515
949.916	527
947.981	499
946.045	545.5
944.109	544.5
942.173	514
940.236	561.5
938.298	533
936.36	507
934.422	517
932.484	524
930.544	485
928.604	495.5
926.664	474
924.724	454
922.782	470.5
920.84	502
918.898	470.5
916.955	466.5
915.012	479
913.068	507.5
911.124	499
909.18	461
907.235	458.5
905.289	516.5
903.343	495
901.397	492.5
899.45	497
897.502	494
895.554	491
893.605	477
891.657	528.5
889.707	552.5
887.758	540.5
885.807	546.5
883.856	543.5
881.905	531
879.953	537
878.001	564
876.048	558.5
874.094	556
872.14	558
870.186	575.5
868.232	536
866.276	545
864.321	525.5
862.365	531
860.408	533
858.451	518
856.493	526
854.535	521
852.576	508
850.617	550.5
848.658	516.5
846.698	534.5
844.737	511
842.776	554
840.814	525
838.852	493
836.89	529.5
834.927	513.5
832.963	456.5
830.999	443
829.035	458
827.07	434
825.105	440
823.139	435
821.172	425
819.206	395
817.238	423
815.27	391.5
813.301	375
811.333	361
809.363	393
807.394	392.5
805.424	385.5
803.453	368
801.482	352
799.509	364.5
797.538	348
795.565	320
793.592	333.5
791.618	357
789.643	306
787.669	336.5
785.693	328
783.718	317
781.742	329
779.765	337
777.788	323
775.811	341.5
773.832	320
771.853	319.5
769.875	336
767.895	315
765.915	313.5
763.934	342.5
761.953	254
759.972	302
757.99	324.5
756.007	316
754.024	329
752.041	343
750.056	302
748.072	305.5
746.087	318
744.102	332
742.116	327
740.13	349.5
738.143	345.5
736.155	349.5
734.167	322.5
732.179	334
730.19	345
728.2	352.5
726.21	346
724.22	326
722.229	329
720.237	328.5
718.246	340.5
716.253	343.5
714.26	341
712.267	359.5
710.273	311
708.279	314.5
706.284	334
704.289	310.5
702.293	330
700.296	310
698.3	311.5
696.303	321.5
694.305	298
692.307	296
690.307	289
688.308	310.5
686.309	315.5
684.308	322
682.308	293
680.306	305
678.304	326.5
676.302	320.5
674.3	297.5
672.296	319.5
670.293	310.5
668.289	332
666.284	332.5
664.278	340.5
662.273	339.5
660.266	303.5
658.26	324.5
656.252	334
654.244	352
652.237	341.5
650.227	326.5
648.218	310
646.209	322
644.198	342
642.188	338
640.177	321
638.165	371.5
636.153	364.5
634.14	315
632.128	351
630.113	332.5
628.099	337
626.085	388
624.07	354
622.054	381
620.038	356
618.021	378.5
616.004	361
613.986	353
611.968	377.5
609.949	398.5
607.93	367
605.911	364.5
603.891	374
601.87	359
599.848	360.5
597.827	382
595.805	379.5
593.782	371.5
591.759	360.5
589.735	379.5
587.711	362
585.687	356
583.661	373.5
581.636	385.5
579.609	357
577.583	366
575.555	340
573.527	378
571.5	368
569.471	349
567.441	374
565.412	339.5
563.382	350
561.351	362
559.32	369
557.289	384
555.257	382
553.223	404
551.19	392.5
549.157	421
547.122	440.5
545.088	421
543.053	446
541.017	464
538.981	508
536.943	535.5
534.907	629
532.869	767.5
530.831	919.5
528.792	1283
526.752	1970
524.713	2781
522.673	3580
520.632	3699
518.591	3112
516.549	2406
514.507	1687
512.464	1205
510.42	878
508.377	688.5
506.332	582.5
504.288	539
502.242	523.5
500.196	473
498.15	472.5
496.104	516
494.056	443
492.008	448
489.96	464.5
487.911	447.5
485.862	464
483.812	462
481.761	451.5
479.71	451.5
477.659	447
475.607	427.5
473.555	456
471.502	424
469.448	455.5
467.395	449
465.34	428
463.285	442.5
461.23	425.5
459.174	416
457.118	444
455.061	379
453.003	443.5
450.945	447
448.887	474.5
446.828	446.5
444.768	462.5
442.708	451.5
440.647	442
438.587	494.5
436.525	481.5
434.463	453.5
432.4	465
430.337	457
428.274	472
426.21	471
424.145	505
422.079	447
420.014	477
417.948	477
415.882	473.5
413.814	473
411.746	483.5
409.679	507.5
407.609	475.5
405.54	500.5
403.47	482.5
401.401	463
399.329	475
397.258	465
395.187	492.5
393.114	492
391.041	493.5
388.968	461.5
386.895	533.5
384.82	489
382.745	474
380.67	493
378.594	504
376.517	489.5
374.44	513
372.363	510
370.286	480.5
368.207	493
366.128	522.5
364.049	530
361.969	522.5
359.888	513
357.807	506
355.725	534.5
353.643	527.5
351.561	508
349.477	529.5
347.394	545
345.31	520.5
343.226	516
341.141	525.5
339.055	545.5
336.968	530
334.882	548.5
332.795	557
330.707	558.5
328.618	571
326.53	572
324.44	563
322.351	578
320.26	607.5
318.17	624.5
316.078	625
313.987	621.5
311.895	652
309.802	670
307.708	664
305.614	694.5
303.52	702
301.425	700.5
299.329	680
297.233	690.5
295.137	658.5
293.039	653
290.942	661.5
288.844	674
286.745	649.5
284.647	651
282.546	655.5
280.446	673
278.346	645.5
276.245	665
274.143	654.5
272.041	657.5
269.939	682.5
267.835	675
265.731	667
263.627	661
261.522	701
259.417	693.5
257.311	720
255.204	702
253.098	695.5
250.99	657.5
248.882	747
246.774	700
244.664	727
242.555	761.5
240.445	752.5
238.334	725.5
236.223	738.5
234.112	734.5
232	763.5
229.888	739
227.775	800
225.661	802
223.546	776.5
221.431	786.5
219.316	800
217.201	806
215.084	774
212.967	772
210.85	814.5
208.732	775
206.614	790
204.495	788
202.375	789
200.256	787.5
198.135	790.5
196.014	823.5
193.893	808.5
191.771	798.5
189.648	801
187.525	821
185.401	841
183.277	817
181.152	813
179.027	819.5
176.901	838
174.775	820
172.648	832
170.521	839.5
168.393	875.5
166.265	848
164.136	831.5
162.007	913
159.876	900
157.746	917
155.615	886
153.483	985.5
151.351	966
149.219	987.5
147.086	1007
144.952	1038
142.818	1048.5
140.684	1114.5
138.548	1086.5
136.413	1141
134.276	1172
132.139	1185.5
130.002	1211
127.864	1285
125.725	1353.5
123.587	1394.5
121.447	1395
119.307	1486
117.166	1578
115.026	1581.5
112.885	1640
110.743	1708.5
108.6	1717
106.456	1801
104.313	1789
102.169	1860.5
100.023	1782.5
97.8789	1707
95.7328	1549
93.5869	1345.5
91.4392	1164.5
89.2919	988.5
87.1447	816
84.9959	608.5
