3528.51	424
3527.23	406.5
3525.95	423
3524.67	467.5
3523.39	488.5
3522.1	457.5
3520.82	466.5
3519.54	460.5
3518.26	479
3516.97	469
3515.69	489
3514.4	478
3513.12	451
3511.84	499
3510.55	488.5
3509.26	491
3507.98	505.5
3506.69	506
3505.41	478
3504.12	527
3502.83	500
3501.54	510
3500.26	511.5
3498.97	470
3497.68	527
3496.39	540.5
3495.1	549
3493.81	542.5
3492.52	557.5
3491.23	544
3489.94	536.5
3488.65	563
3487.36	558
3486.07	569.5
3484.78	571
3483.49	564.5
3482.19	586.5
3480.9	584
3479.61	596.5
3478.31	626
3477.02	633
3475.73	615
3474.43	622
3473.14	632
3471.84	658.5
3470.54	653
3469.25	647.5
3467.95	648.5
3466.66	681
3465.36	646.5
3464.06	679.5
3462.76	660.5
3461.46	684.5
3460.17	681.5
3458.87	704.5
3457.57	680
3456.27	697
3454.97	687.5
3453.67	689
3452.37	715
3451.07	703
3449.77	727
3448.47	719.5
3447.16	758
3445.86	740.5
3444.56	767.5
3443.26	763.5
3441.95	774.5
3440.65	809.5
3439.35	792
3438.04	790.5
3436.74	828
3435.43	841
3434.13	857
3432.82	874.5
3431.52	910.5
3430.21	904
3428.9	931.5
3427.6	927.5
3426.29	925
3424.98	958.5
3423.67	981
3422.36	978.5
3421.06	977.5
3419.75	987.5
3418.44	1027
3417.13	1043
3415.82	1058
3414.51	1058.5
3413.2	1047
3411.88	1080
3410.57	1109.5
3409.26	1084
3407.95	1121
3406.64	1081.5
3405.32	1105
3404.01	1154
3402.7	1155
3401.38	1183
3400.07	1175
3398.75	1145.5
3397.44	1150
3396.12	1212.5
3394.81	1207.5
3393.49	1189.5
3392.18	1219.5
3390.86	1197.5
3389.54	1242
3388.23	1205.5
3386.91	1257.5
3385.59	1256.5
3384.27	1260
3382.95	1264
3381.63	1278
3380.31	1314.5
3378.99	1319
3377.67	1318.5
3376.35	1292.5
3375.03	1327
3373.71	1326
3372.39	1342.5
3371.07	1343
3369.75	1408
3368.42	1370
3367.1	1420.5
3365.78	1413
3364.45	1422.5
3363.13	1419
3361.81	1435
3360.48	1488
3359.16	1482
3357.83	1465.5
3356.51	1523
3355.18	1460.5
3353.85	1523.5
3352.53	1487.5
3351.2	1511
3349.87	1522.5
3348.54	1510
3347.22	1510.5
3345.89	1530
3344.56	1528.5
3343.23	1525
3341.9	1532
3340.57	1554.5
3339.24	1566.5
3337.91	1552.5
3336.58	1592.5
3335.25	1594.5
3333.92	1520.5
3332.58	1578
3331.25	1579.5
3329.92	1571
3328.59	1646
3327.25	1626
3325.92	1635.5
3324.58	1616
3323.25	1637.5
3321.92	1615.5
3320.58	1655.5
3319.25	1664
3317.91	1619.5
3316.57	1653
3315.24	1674
3313.9	1638.5
3312.56	1703
3311.23	1736
3309.89	1708.5
3308.55	1717.5
3307.21	1749
3305.87	1739
3304.53	1740
3303.19	1770.5
3301.85	1797.5
3300.51	1798.5
3299.17	1792
3297.83	1796.5
3296.49	1770.5
3295.15	1835.5
3293.81	1826.5
3292.46	1787
3291.12	1834
3289.78	1813.5
3288.43	1824
3287.09	1826.5
3285.75	1814
3284.4	1858
3283.06	1887
3281.71	1862
3280.37	1838
3279.02	1883.5
3277.67	1871
3276.33	1894.5
3274.98	1874
3273.63	1876.5
3272.28	1903
3270.94	1936.5
3269.59	1946.5
3268.24	1919
3266.89	1931
3265.54	1985.5
3264.19	1951
3262.84	2003.5
3261.49	1979.5
3260.14	1991
3258.79	2087
3257.44	2078.5
3256.08	2100.5
3254.73	2140
3253.38	2203.5
3252.03	2206
3250.67	2202
3249.32	2216.5
3247.96	2291
3246.61	2332.5
3245.26	2368
3243.9	2412.5
3242.54	2461.5
3241.19	2549
3239.83	2575
3238.48	2646.5
3237.12	2754.5
3235.76	2792
3234.41	2817.5
3233.05	2921.5
3231.69	2916
3230.33	3046
3228.97	3138.5
3227.61	3223
3226.25	3289.5
3224.89	3405
3223.53	3417
3222.17	3482.5
3220.81	3606
3219.45	3634
3218.09	3753
3216.72	3771.5
3215.36	3842.5
3214	3937.5
3212.63	4025
3211.27	4057
3209.91	4100.5
3208.54	4138
3207.18	4207.5
3205.81	4235
3204.45	4322
3203.08	4298
3201.71	4294
3200.35	4398.5
3198.98	4398
3197.61	4415
3196.25	4440.5
3194.88	4472.5
3193.51	4546
3192.14	4493
3190.77	4479
3189.4	4469
3188.03	4569.5
3186.66	4491.5
3185.29	4635.5
3183.92	4566.5
3182.55	4688.5
3181.18	4711.5
3179.81	4672
3178.44	4707
3177.06	4718.5
3175.69	4767.5
3174.32	4818
3172.94	4852.5
3171.57	4863
3170.2	4855.5
3168.82	4932
3167.45	4987
3166.07	4968
3164.69	5007.5
3163.32	5035
3161.94	5093.5
3160.56	5136.5
3159.19	5179
3157.81	5222.5
3156.43	5281.5
3155.05	5343.5
3153.67	5371
3152.3	5383
3150.92	5403
3149.54	5437.5
3148.16	5468.5
3146.78	5576
3145.4	5526.5
3144.01	5657
3142.63	5627
3141.25	5745.5
3139.87	5795.5
3138.49	5812.5
3137.1	5846
3135.72	5899.5
3134.34	5975.5
3132.95	5924
3131.57	5879.5
3130.18	6059
3128.8	6066
3127.41	6074
3126.03	6150
3124.64	6199.5
3123.25	6223.5
3121.87	6242.5
3120.48	6297.5
3119.09	6308.5
3117.7	6365.5
3116.32	6459
3114.93	6438.5
3113.54	6522.5
3112.15	6549
3110.76	6479
3109.37	6565.5
3107.98	6582.5
3106.59	6613.5
3105.2	6638
3103.8	6732
3102.41	6778
3101.02	6833
3099.63	6760.5
3098.23	6816
3096.84	6778.5
3095.45	6789
3094.05	6928.5
3092.66	6884.5
3091.26	6881.5
3089.87	6910
3088.47	7002
3087.08	7033
3085.68	7124.5
3084.28	7047.5
3082.89	7042
3081.49	7254
3080.09	7153
3078.69	7185
3077.3	7169.5
3075.9	7184.5
3074.5	7219.5
3073.1	7215.5
3071.7	7310.5
3070.3	7307
3068.9	7359.5
3067.5	7370
3066.09	7308.5
3064.69	7392.5
3063.29	7378.5
3061.89	7441
3060.48	7441.5
3059.08	7440.5
3057.68	7481.5
3056.27	7518.5
3054.87	7530.5
3053.46	7524.5
3052.06	7537
3050.65	7588.5
3049.25	7609.5
3047.84	7699
3046.44	7699.5
3045.03	7700.5
3043.62	7688.5
3042.21	7721
3040.81	7701
3039.4	7793.5
3037.99	7700
3036.58	7801.5
3035.17	7822.5
3033.76	7943
3032.35	7935.5
3030.94	7888.5
3029.53	7861
3028.12	7890
3026.71	7957.5
3025.29	7948
3023.88	7905
3022.47	8016
3021.06	8088.5
3019.64	7912
3018.23	7977
3016.82	8110
3015.4	8023
3013.99	8089
3012.57	8100.5
3011.15	8109.5
3009.74	8106.5
3008.32	8126
3006.91	8191
3005.49	8205.5
3004.07	8283
3002.65	8125
3001.24	8333
2999.82	8380
2998.4	8422
2996.98	8381.5
2995.56	8358
2994.14	8393
2992.72	8515
2991.3	8474.5
2989.88	8469.5
2988.46	8553
2987.03	8573
2985.61	8560.5
2984.19	8669
2982.77	8774
2981.34	8610.5
2979.92	8820.5
2978.49	8873.5
2977.07	8781.5
2975.65	8859.5
2974.22	8954
2972.79	9033
2971.37	9080
2969.94	9099.5
2968.52	9125
2967.09	9205
2965.66	9229.5
2964.23	9332
2962.81	9323
2961.38	9247.5
2959.95	9351.5
2958.52	9349.5
2957.09	9364
2955.66	9480.5
2954.23	9444
2952.8	9450
2951.37	9475
2949.94	9544
2948.5	9613.5
2947.07	9577.5
2945.64	9622
2944.21	9664
2942.77	9680.5
2941.34	9631.5
2939.91	9736.5
2938.47	9680.5
2937.04	9754
2935.6	9775
2934.17	9830
2932.73	9947
2931.29	9828
2929.86	9972
2928.42	9982.5
2926.98	10091.5
2925.55	10015.5
2924.11	10021
2922.67	10004.5
2921.23	10142
2919.79	10034.5
2918.35	10136
2916.91	10174.5
2915.47	10169.5
2914.03	10190
2912.59	10098.5
2911.15	10232
2909.71	10188.5
2908.26	10297.5
2906.82	10386
2905.38	10398.5
2903.94	10220.5
2902.49	10352.5
2901.05	10511
2899.6	10455
2898.16	10362
2896.71	10408.5
2895.27	10436.5
2893.82	10451.5
2892.38	10445.5
2890.93	10469
2889.48	10470.5
2888.03	10377.5
2886.59	10443.5
2885.14	10409.5
2883.69	10440
2882.24	10420
2880.79	10480
2879.34	10486.5
2877.89	10433.5
2876.44	10463
2874.99	10472
2873.54	10516
2872.09	10449
2870.64	10516.5
2869.18	10523.5
2867.73	10569.5
2866.28	10530.5
2864.83	10673.5
2863.37	10585.5
2861.92	10567.5
2860.46	10668
2859.01	10657.5
2857.55	10602
2856.1	10526
2854.64	10658.5
2853.19	10702
2851.73	10702.5
2850.27	10547.5
2848.81	10703.5
2847.36	10713.5
2845.9	10713.5
2844.44	10585
2842.98	10553.5
2841.52	10587.5
2840.06	10422
2838.6	10533.5
2837.14	10511.5
2835.68	10526.5
2834.22	10496
2832.76	10344
2831.3	10465
2829.83	10238
2828.37	10324.5
2826.91	10238
2825.44	10266.5
2823.98	10190
2822.52	10181
2821.05	10076
2819.59	10184.5
2818.12	10075
2816.66	10016.5
2815.19	10055
2813.72	9952
2812.26	10000.5
2810.79	9986
2809.32	9920
2807.85	9929
2806.38	10001
2804.92	10029
2803.45	9950.5
2801.98	9861.5
2800.51	9963.5
2799.04	9816.5
2797.57	9862
2796.1	9836.5
2794.62	9749
2793.15	9769.5
2791.68	9819.5
2790.21	9803
2788.73	9854.5
2787.26	9823.5
2785.79	9784
2784.31	9694.5
2782.84	9757.5
2781.36	9765
2779.89	9819
2778.41	9717
2776.94	9792
2775.46	9791.5
2773.99	9881
2772.51	9805
2771.03	9735.5
2769.55	9737.5
2768.07	9737.5
2766.6	9769
2765.12	9756.5
2763.64	9684
2762.16	9650.5
2760.68	9758.5
2759.2	9798
2757.72	9642
2756.24	9718
2754.75	9739
2753.27	9783
2751.79	9752
2750.31	9693
2748.82	9671
2747.34	9626.5
2745.86	9660.5
2744.37	9703
2742.89	9659.5
2741.4	9648
2739.92	9725
2738.43	9719
2736.94	9707.5
2735.46	9807.5
2733.97	9695.5
2732.48	9769
2731	9792.5
2729.51	9838.5
2728.02	9778
2726.53	9706
2725.04	9701.5
2723.55	9645.5
2722.06	9795
2720.57	9751
2719.08	9762
2717.59	9750
2716.1	9660
2714.61	9746.5
2713.11	9650.5
2711.62	9640
2710.13	9596
2708.64	9635.5
2707.14	9624
2705.65	9535.5
2704.15	9534.5
2702.66	9531.5
2701.16	9525.5
2699.67	9426.5
2698.17	9483
2696.67	9367
2695.18	9451
2693.68	9502.5
2692.18	9497
2690.69	9471.5
2689.19	9435
2687.69	9465.5
2686.19	9496.5
2684.69	9417
2683.19	9449
2681.69	9341.5
2680.19	9356.5
2678.69	9352
2677.19	9429.5
2675.68	9311
2674.18	9246
2672.68	9248.5
2671.18	9284
2669.67	9326.5
2668.17	9293
2666.66	9227
2665.16	9242.5
2663.66	9242.5
2662.15	9243.5
2660.64	9249.5
2659.14	9300
2657.63	9210.5
2656.13	9161.5
2654.62	9254.5
2653.11	9142
2651.6	9202
2650.09	9207.5
2648.58	9293
2647.08	9137.5
2645.57	9215
2644.06	9250
2642.55	9155.5
2641.04	9190
2639.52	9169
2638.01	9131
2636.5	9057.5
2634.99	9076.5
2633.48	9017
2631.96	9015
2630.45	9032.5
2628.94	8961.5
2627.42	8956
2625.91	8886.5
2624.39	8931
2622.88	8966
2621.36	8866.5
2619.85	8927.5
2618.33	8853.5
2616.81	8926
2615.3	8897
2613.78	8789.5
2612.26	8817.5
2610.74	8799
2609.22	8806
2607.7	8821
2606.18	8765
2604.66	8715.5
2603.14	8710.5
2601.62	8669.5
2600.1	8660
2598.58	8541.5
2597.06	8516
2595.54	8558.5
2594.01	8609
2592.49	8571
2590.97	8508.5
2589.44	8524
2587.92	8452
2586.39	8514.5
2584.87	8467.5
2583.34	8463.5
2581.82	8413.5
2580.29	8393
2578.76	8536.5
2577.24	8382
2575.71	8505.5
2574.18	8422.5
2572.65	8406
2571.13	8405.5
2569.6	8313.5
2568.07	8342.5
2566.54	8354.5
2565.01	8341
2563.48	8287.5
2561.95	8207.5
2560.42	8238.5
2558.88	8215
2557.35	8202
2555.82	8149
2554.29	8127
2552.75	8086
2551.22	8102.5
2549.69	8105.5
2548.15	8126
2546.62	7939.5
2545.08	8063
2543.55	8026.5
2542.01	7979.5
2540.47	7999
2538.94	8052
2537.4	7913
2535.86	7835
2534.33	7868.5
2532.79	7818
2531.25	7832.5
2529.71	7813
2528.17	7807
2526.63	7751.5
2525.09	7725.5
2523.55	7723.5
2522.01	7758.5
2520.47	7594
2518.92	7646
2517.38	7628.5
2515.84	7685.5
2514.3	7524
2512.75	7507
2511.21	7528.5
2509.67	7585.5
2508.12	7531
2506.58	7396
2505.03	7495.5
2503.49	7383.5
2501.94	7426
2500.39	7461.5
2498.85	7491
2497.3	7327.5
2495.75	7357.5
2494.2	7375
2492.65	7293
2491.11	7326.5
2489.56	7332.5
2488.01	7300
2486.46	7233.5
2484.91	7273.5
2483.36	7169
2481.8	7271.5
2480.25	7182
2478.7	7103.5
2477.15	7092
2475.6	7192.5
2474.04	7076
2472.49	7023.5
2470.93	6978
2469.38	7015.5
2467.83	6962
2466.27	6931
2464.71	6936.5
2463.16	6956.5
2461.6	6863
2460.05	6838
2458.49	6860.5
2456.93	6802
2455.37	6828.5
2453.81	6723
2452.26	6769
2450.7	6739
2449.14	6665
2447.58	6676
2446.02	6612.5
2444.46	6591.5
2442.9	6662.5
2441.33	6641.5
2439.77	6618.5
2438.21	6480.5
2436.65	6568.5
2435.08	6560.5
2433.52	6527.5
2431.96	6481
2430.39	6546
2428.83	6452.5
2427.26	6388
2425.7	6479.5
2424.13	6455
2422.56	6457
2421	6397.5
2419.43	6296.5
2417.86	6243
2416.3	6199.5
2414.73	6280
2413.16	6219
2411.59	6225.5
2410.02	6218.5
2408.45	6108.5
2406.88	6172
2405.31	6189
2403.74	6176
2402.17	6210
2400.6	6086
2399.02	6046
2397.45	6154.5
2395.88	6081.5
2394.3	6036
2392.73	6037
2391.16	6032.5
2389.58	6014.5
2388.01	6051
2386.43	6009
2384.86	5956.5
2383.28	5968
2381.7	6013
2380.13	5995.5
2378.55	5976
2376.97	5916
2375.39	6003.5
2373.81	5947.5
2372.23	5968.5
2370.65	5939.5
2369.07	5878.5
2367.49	5822
2365.91	5879
2364.33	5776
2362.75	5725.5
2361.17	5761.5
2359.59	5712
2358.01	5706.5
2356.42	5706
2354.84	5717.5
2353.25	5714
2351.67	5692.5
2350.09	5632
2348.5	5537
2346.92	5646
2345.33	5683
2343.74	5646
2342.16	5661
2340.57	5626
2338.98	5630.5
2337.39	5580.5
2335.81	5539
2334.22	5517
2332.63	5574.5
2331.04	5596.5
2329.45	5595.5
2327.86	5589.5
2326.27	5586.5
2324.68	5564
2323.09	5537
2321.49	5564.5
2319.9	5493.5
2318.31	5485.5
2316.72	5455.5
2315.12	5469.5
2313.53	5395
2311.93	5376.5
2310.34	5373
2308.74	5327
2307.15	5369
2305.55	5327
2303.96	5330.5
2302.36	5282.5
2300.76	5247
2299.17	5253.5
2297.57	5200
2295.97	5214.5
2294.37	5176.5
2292.77	5190
2291.17	5135
2289.57	5138.5
2287.97	5102.5
2286.37	5077
2284.77	5108.5
2283.17	4990.5
2281.57	4999
2279.96	5016
2278.36	5012.5
2276.76	4962
2275.15	4942.5
2273.55	4896
2271.95	4828.5
2270.34	4916
2268.74	4894.5
2267.13	4854.5
2265.52	4800
2263.92	4793
2262.31	4752.5
2260.7	4760.5
2259.1	4727
2257.49	4748
2255.88	4702.5
2254.27	4813
2252.66	4711.5
2251.05	4662
2249.44	4691
2247.83	4693
2246.22	4656
2244.61	4658.5
2243	4696
2241.39	4583
2239.77	4646.5
2238.16	4501.5
2236.55	4537.5
2234.93	4561
2233.32	4561.5
2231.7	4534
2230.09	4470
2228.47	4491.5
2226.86	4457
2225.24	4429.5
2223.63	4370
2222.01	4449.5
2220.39	4386
2218.77	4442
2217.16	4422.5
2215.54	4382.5
2213.92	4348
2212.3	4297.5
2210.68	4304
2209.06	4290.5
2207.44	4275
2205.82	4253
2204.19	4211
2202.57	4239.5
2200.95	4249.5
2199.33	4180
2197.7	4214
2196.08	4183.5
2194.46	4205.5
2192.83	4139
2191.21	4123
2189.58	4090.5
2187.96	4157.5
2186.33	4079.5
2184.7	4079.5
2183.08	4054
2181.45	4034
2179.82	4060.5
2178.19	4006
2176.57	3997
2174.94	4029.5
2173.31	4034.5
2171.68	4031.5
2170.05	3931
2168.42	3958.5
2166.79	3913.5
2165.16	3900.5
2163.52	3899
2161.89	3905.5
2160.26	3881
2158.63	3911.5
2156.99	3915
2155.36	3855.5
2153.73	3872
2152.09	3881.5
2150.46	3851.5
2148.82	3838
2147.18	3836.5
2145.55	3820.5
2143.91	3770
2142.27	3764
2140.64	3741
2139	3768
2137.36	3751.5
2135.72	3614.5
2134.08	3665.5
2132.44	3681
2130.8	3676
2129.16	3658.5
2127.52	3594.5
2125.88	3561
2124.24	3530.5
2122.6	3457.5
2120.95	3451.5
2119.31	3385.5
2117.67	3492.5
2116.02	3469.5
2114.38	3450
2112.74	3454
2111.09	3445
2109.45	3405
2107.8	3452
2106.15	3388.5
2104.51	3416.5
2102.86	3378
2101.21	3361.5
2099.56	3330.5
2097.92	3366.5
2096.27	3321.5
2094.62	3242.5
2092.97	3280
2091.32	3320.5
2089.67	3255
2088.02	3294
2086.37	3261
2084.72	3275.5
2083.06	3243
2081.41	3214.5
2079.76	3194
2078.1	3115.5
2076.45	3132.5
2074.8	3120.5
2073.14	3143
2071.49	3096
2069.83	3167.5
2068.18	3089.5
2066.52	3140
2064.86	3105
2063.21	3094
2061.55	3102.5
2059.89	3097
2058.23	3013
2056.57	3107.5
2054.92	3070
2053.26	3052.5
2051.6	3072
2049.94	3083.5
2048.27	3019.5
2046.61	3035
2044.95	3016
2043.29	3009.5
2041.63	3020.5
2039.97	3019.5
2038.3	2994.5
2036.64	2962.5
2034.97	2992.5
2033.31	2952
2031.64	2974.5
2029.98	2952
2028.31	2900.5
2026.65	2875.5
2024.98	2836.5
2023.31	2818
2021.65	2833
2019.98	2842
2018.31	2803
2016.64	2760.5
2014.97	2782.5
2013.3	2746.5
2011.63	2770
2009.96	2731
2008.29	2733.5
2006.62	2699
2004.95	2683.5
2003.28	2701.5
2001.6	2730
1999.93	2720
1998.26	2681
1996.58	2735.5
1994.91	2678
1993.24	2692.5
1991.56	2619.5
1989.89	2631
1988.21	2574.5
1986.53	2605.5
1984.86	2585.5
1983.18	2589.5
1981.5	2607
1979.82	2538.5
1978.15	2633.5
1976.47	2606.5
1974.79	2573.5
1973.11	2548.5
1971.43	2518
1969.75	2501
1968.07	2505.5
1966.38	2525
1964.7	2521
1963.02	2499.5
1961.34	2482.5
1959.66	2448.5
1957.97	2492
1956.29	2439.5
1954.6	2457
1952.92	2455
1951.23	2447
1949.55	2412
1947.86	2386.5
1946.18	2382
1944.49	2409.5
1942.8	2362
1941.11	2390
1939.43	2355.5
1937.74	2361
1936.05	2349
1934.36	2342.5
1932.67	2338.5
1930.98	2367
1929.29	2299
1927.6	2254
1925.91	2261
1924.21	2236.5
1922.52	2229.5
1920.83	2225
1919.14	2175
1917.44	2198.5
1915.75	2161
1914.05	2199.5
1912.36	2195
1910.66	2161.5
1908.97	2091
1907.27	2143.5
1905.58	2159.5
1903.88	2100
1902.18	2118
1900.48	2129
1898.79	2153
1897.09	2113
1895.39	2063.5
1893.69	2050
1891.99	2095.5
1890.29	2058.5
1888.59	2024
1886.89	2055.5
1885.18	2025.5
1883.48	1963.5
1881.78	1948
1880.08	1988
1878.37	1960.5
1876.67	1922.5
1874.96	1954.5
1873.26	1924.5
1871.55	1985
1869.85	1917.5
1868.14	1927
1866.44	1927
1864.73	1873.5
1863.02	1917.5
1861.32	1889
1859.61	1921
1857.9	1853.5
1856.19	1863
1854.48	1818.5
1852.77	1859
1851.06	1794
1849.35	1790
1847.64	1872
1845.93	1786.5
1844.21	1846
1842.5	1768.5
1840.79	1808
1839.08	1791
1837.36	1789.5
1835.65	1791
1833.93	1780
1832.22	1755
1830.5	1749
1828.79	1750.5
1827.07	1695
1825.36	1767.5
1823.64	1690
1821.92	1724.5
1820.2	1682
1818.48	1704
1816.77	1673.5
1815.05	1656.5
1813.33	1663
1811.61	1683.5
1809.89	1655
1808.16	1623.5
1806.44	1608
1804.72	1627.5
1803	1621.5
1801.28	1598
1799.55	1613
1797.83	1547
1796.11	1599
1794.38	1568.5
1792.66	1566.5
1790.93	1564.5
1789.21	1532
1787.48	1517
1785.75	1522.5
1784.03	1534.5
1782.3	1555.5
1780.57	1508
1778.84	1545
1777.11	1550.5
1775.38	1500.5
1773.66	1527
1771.93	1476.5
1770.19	1495.5
1768.46	1492.5
1766.73	1547.5
1765	1522.5
1763.27	1519
1761.54	1504.5
1759.8	1568.5
1758.07	1558
1756.34	1597.5
1754.6	1591.5
1752.87	1615.5
1751.13	1629.5
1749.4	1617.5
1747.66	1667.5
1745.92	1603.5
1744.19	1622.5
1742.45	1567.5
1740.71	1539.5
1738.97	1556
1737.23	1543
1735.49	1498
1733.75	1487
1732.01	1496.5
1730.27	1455.5
1728.53	1455
1726.79	1419.5
1725.05	1399.5
1723.31	1404
1721.57	1396.5
1719.82	1365
1718.08	1378
1716.34	1349
1714.59	1367.5
1712.85	1329
1711.1	1376
1709.36	1339.5
1707.61	1331.5
1705.86	1352
1704.12	1375.5
1702.37	1297
1700.62	1303.5
1698.87	1339.5
1697.12	1315.5
1695.37	1313
1693.62	1260.5
1691.87	1269.5
1690.12	1300
1688.37	1327
1686.62	1262
1684.87	1263
1683.12	1274
1681.36	1300.5
1679.61	1270.5
1677.86	1241.5
1676.1	1246.5
1674.35	1341
1672.59	1347
1670.84	1378
1669.08	1384
1667.33	1498
1665.57	1612
1663.81	1678
1662.06	1826.5
1660.3	1827
1658.54	1913.5
1656.78	1924.5
1655.02	1871
1653.26	1813
1651.5	1715
1649.74	1591.5
1647.98	1521.5
1646.22	1459
1644.46	1383
1642.7	1336.5
1640.93	1273
1639.17	1240.5
1637.41	1217
1635.64	1170
1633.88	1153
1632.11	1192.5
1630.35	1161
1628.58	1163
1626.81	1135
1625.05	1130.5
1623.28	1133.5
1621.51	1078
1619.75	1095.5
1617.98	1093
1616.21	1085.5
1614.44	1069
1612.67	1058.5
1610.9	1064.5
1609.13	1055.5
1607.36	1064
1605.58	1043.5
1603.81	1069
1602.04	1076
1600.27	1022.5
1598.49	1038.5
1596.72	1026
1594.95	1031
1593.17	1047.5
1591.4	1040
1589.62	991.5
1587.84	1042.5
1586.07	1013
1584.29	981
1582.51	1035
1580.74	1059.5
1578.96	1015
1577.18	1013
1575.4	1013
1573.62	998.5
1571.84	1003.5
1570.06	992
1568.28	991.5
1566.5	966
1564.72	988.5
1562.93	988
1561.15	1002
1559.37	1001.5
1557.58	996
1555.8	978.5
1554.02	984.5
1552.23	969
1550.45	950.5
1548.66	962
1546.87	933
1545.09	921
1543.3	953
1541.51	967.5
1539.72	930
1537.94	915
1536.15	895
1534.36	940
1532.57	908
1530.78	947
1528.99	896.5
1527.2	914.5
1525.4	916.5
1523.61	905
1521.82	914
1520.03	903
1518.23	886
1516.44	876.5
1514.65	929.5
1512.85	910
1511.06	897
1509.26	897
1507.46	897
1505.67	895.5
1503.87	918.5
1502.07	930
1500.28	909
1498.48	923
1496.68	926
1494.88	920
1493.08	945.5
1491.28	961.5
1489.48	954
1487.68	992
1485.88	1014.5
1484.08	1024.5
1482.27	1050.5
1480.47	1053.5
1478.67	1093.5
1476.86	1129.5
1475.06	1196.5
1473.25	1260
1471.45	1315.5
1469.64	1385.5
1467.84	1519.5
1466.03	1603.5
1464.23	1674.5
1462.42	1765.5
1460.61	1846.5
1458.8	1935
1456.99	2006.5
1455.18	2057
1453.37	2110
1451.56	2112.5
1449.75	2229
1447.94	2241.5
1446.13	2343
1444.32	2380.5
1442.51	2488
1440.7	2466
1438.88	2367
1437.07	2313
1435.26	2105.5
1433.44	1928.5
1431.63	1763
1429.81	1549
1427.99	1403
1426.18	1302
1424.36	1224
1422.54	1177
1420.73	1146.5
1418.91	1051
1417.09	1065
1415.27	1013
1413.45	962.5
1411.63	924
1409.81	944
1407.99	917.5
1406.17	907
1404.35	871.5
1402.53	858
1400.7	865
1398.88	867.5
1397.06	829.5
1395.23	791
1393.41	835.5
1391.58	794
1389.76	782
1387.93	812.5
1386.11	795
1384.28	820
1382.45	820.5
1380.62	832
1378.8	798.5
1376.97	823.5
1375.14	825.5
1373.31	828.5
1371.48	837.5
1369.65	837
1367.82	838.5
1365.99	793
1364.16	850.5
1362.32	823
1360.49	813.5
1358.66	816
1356.82	832.5
1354.99	825
1353.16	816
1351.32	812.5
1349.48	804
1347.65	835
1345.81	849
1343.98	864
1342.14	807
1340.3	825
1338.46	852.5
1336.62	846
1334.79	879
1332.95	891
1331.11	909
1329.27	985
1327.42	989
1325.58	1021
1323.74	1075
1321.9	1143.5
1320.06	1187
1318.21	1203
1316.37	1290
1314.53	1351
1312.68	1434
1310.84	1507
1308.99	1632
1307.15	1717.5
1305.3	1821.5
1303.45	1799
1301.61	1824
1299.76	1715
1297.91	1682.5
1296.06	1603
1294.21	1475
1292.36	1352.5
1290.51	1291
1288.66	1292.5
1286.81	1267
1284.96	1240
1283.11	1267
1281.26	1210
1279.4	1234
1277.55	1255.5
1275.7	1252
1273.84	1301.5
1271.99	1297
1270.13	1301
1268.28	1326
1266.42	1332.5
1264.56	1270
1262.71	1291
1260.85	1269
1258.99	1229.5
1257.13	1168.5
1255.27	1148
1253.41	1121.5
1251.56	1002
1249.7	1007.5
1247.83	948
1245.97	903
1244.11	899.5
1242.25	863
1240.39	843
1238.52	832.5
1236.66	790.5
1234.8	764
1232.93	766
1231.07	777
1229.2	756
1227.34	728
1225.47	734
1223.6	711
1221.74	715
1219.87	715
1218	689
1216.13	655
1214.26	691
1212.39	694
1210.53	673
1208.65	661
1206.78	662.5
1204.91	677
1203.04	643
1201.17	652.5
1199.3	658
1197.42	659
1195.55	644
1193.68	654
1191.8	638.5
1189.93	629
1188.05	641
1186.17	649
1184.3	652.5
1182.42	651.5
1180.54	632
1178.67	588
1176.79	657
1174.91	644.5
1173.03	627
1171.15	628
1169.27	641.5
1167.39	632.5
1165.51	654.5
1163.63	630
1161.75	657.5
1159.86	647
1157.98	643
1156.1	652
1154.21	660
1152.33	639
1150.44	633
1148.56	632
1146.67	650.5
1144.79	686.5
1142.9	663.5
1141.01	633
1139.12	664.5
1137.24	673.5
1135.35	691
1133.46	691
1131.57	712
1129.68	743.5
1127.79	801
1125.9	841
1124.01	876.5
1122.12	878
1120.22	883
1118.33	895.5
1116.44	851
1114.54	849.5
1112.65	866
1110.75	812
1108.86	837
1106.96	856
1105.07	854.5
1103.17	957
1101.27	932.5
1099.38	988
1097.48	1034
1095.58	1110
1093.68	1181
1091.78	1201
1089.88	1262
1087.98	1264
1086.08	1335
1084.18	1349
1082.28	1382
1080.38	1335
1078.47	1351.5
1076.57	1305
1074.67	1317
1072.76	1227
1070.86	1247
1068.95	1243
1067.05	1252
1065.14	1310
1063.24	1206
1061.33	1174
1059.42	1099.5
1057.51	1029.5
1055.6	991.5
1053.7	942.5
1051.79	901.5
1049.88	945.5
1047.97	946.5
1046.06	926
1044.14	908
1042.23	903.5
1040.32	892.5
1038.41	897
1036.5	851
1034.58	931
1032.67	882
1030.75	885
1028.84	874
1026.92	872
1025.01	862.5
1023.09	863
1021.17	877
1019.26	883.5
1017.34	848
1015.42	851.5
1013.5	827.5
1011.58	797
1009.66	813
1007.74	780
1005.82	800
1003.9	771
1001.98	754
1000.06	742
998.134	747
996.212	737.5
994.288	720
992.364	785.5
990.44	785
988.515	828
986.589	834.5
984.663	850
982.737	871
980.81	857
978.883	930
976.955	1014.5
975.027	983
973.098	1017
971.169	1037.5
969.239	1026.5
967.308	988.5
965.378	991
963.447	999.5
961.516	983.5
959.583	992
957.65	958
955.718	984
953.784	1012.5
951.85	1012.5
949.916	998
947.981	1010.5
946.045	1016
944.109	1052
942.173	1043.5
940.236	1056
938.298	998.5
936.36	1040
934.422	1053
932.484	978
930.544	995
928.604	1001
926.664	926
924.724	957
922.782	925
920.84	972
918.898	944
916.955	943
915.012	991
913.068	1020
911.124	981.5
909.18	976
907.235	958
905.289	987
903.343	966
901.397	1030
899.45	975
897.502	1033.5
895.554	1062
893.605	1021
891.657	1061
889.707	1135.5
887.758	1119.5
885.807	1081
883.856	1124
881.905	1122
879.953	1100
878.001	1146
876.048	1188.5
874.094	1148
872.14	1206
870.186	1180
868.232	1169
866.276	1186
864.321	1126
862.365	1149
860.408	1102
858.451	1141
856.493	1105
854.535	1091
852.576	1083
850.617	1147
848.658	1118
846.698	1144.5
844.737	1100
842.776	1078
840.814	1093
838.852	1053
836.89	1020
834.927	1010
832.963	945
830.999	947
829.035	861
827.07	867
825.105	834
823.139	828
821.172	814
819.206	780
817.238	779
815.27	745.5
813.301	740
811.333	701.5
809.363	716.5
807.394	695
805.424	653
803.453	646
801.482	624.5
799.509	596
797.538	619.5
795.565	557.5
793.592	569
791.618	539
789.643	550
787.669	567
785.693	540.5
783.718	558
781.742	557
779.765	521
777.788	529
775.811	519
773.832	535
771.853	567
769.875	540
767.895	542
765.915	565
763.934	561.5
761.953	492
759.972	530
757.99	520.5
756.007	519
754.024	488
752.041	553
750.056	483
748.072	532.5
746.087	565
744.102	539
742.116	577
740.13	528
738.143	564
736.155	561
734.167	533.5
732.179	538
730.19	588.5
728.2	603
726.21	577.5
724.22	535
722.229	554
720.237	548
718.246	524.5
716.253	547
714.26	519
712.267	541
710.273	510
708.279	505.5
706.284	478
704.289	491
702.293	483.5
700.296	485
698.3	445
696.303	461
694.305	474
692.307	454
690.307	447
688.308	468
686.309	430
684.308	454.5
682.308	460.5
680.306	437
678.304	482
676.302	468.5
674.3	417
672.296	427
670.293	461
668.289	471
666.284	479
664.278	448
662.273	470
660.266	483
658.26	473
656.252	484.5
654.244	502
652.237	449.5
650.227	477
648.218	473.5
646.209	497
644.198	469
642.188	496
640.177	472
638.165	473
636.153	517.5
634.14	503
632.128	530
630.113	498
628.099	511
626.085	518.5
624.07	529
622.054	571
620.038	504.5
618.021	548
616.004	548
613.986	550
611.968	562.5
609.949	581
607.93	574
605.911	554.5
603.891	596.5
601.87	590
599.848	581
597.827	533
595.805	566
593.782	560.5
591.759	554.5
589.735	569
587.711	544.5
585.687	563.5
583.661	532
581.636	520
579.609	482
577.583	507
575.555	487
573.527	528
571.5	520
569.471	512
567.441	512.5
565.412	505
563.382	520
561.351	536
559.32	536.5
557.289	532
555.257	558.5
553.223	548
551.19	564
549.157	584.5
547.122	594
545.088	623.5
543.053	658
541.017	663
538.981	687
536.943	737
534.907	899
532.869	1071
530.831	1359
528.792	1890
526.752	2822
524.713	4044
522.673	5132.5
520.632	5288
518.591	4443
516.549	3390.5
514.507	2461
512.464	1738
510.42	1280.5
508.377	1000
506.332	906
504.288	744
502.242	750
500.196	745
498.15	736
496.104	741
494.056	686
492.008	649
489.96	665
487.911	700
485.862	648
483.812	697
481.761	673.5
479.71	617
477.659	662.5
475.607	646
473.555	669
471.502	632
469.448	653
467.395	670
465.34	674
463.285	661
461.23	636
459.174	638.5
457.118	674.5
455.061	637.5
453.003	696.5
450.945	697
448.887	679
446.828	658.5
444.768	665
442.708	690
440.647	699
438.587	735
436.525	712
434.463	721
432.4	665
430.337	746.5
428.274	710
426.21	666
424.145	781
422.079	720
420.014	711
417.948	745.5
415.882	749
413.814	743
411.746	731
409.679	777
407.609	749
405.54	752
403.47	754
401.401	724
399.329	752.5
397.258	755
395.187	757
393.114	782.5
391.041	797
388.968	750.5
386.895	796
384.82	792.5
382.745	755
380.67	781.5
378.594	806.5
376.517	773.5
374.44	820.5
372.363	804.5
370.286	787
368.207	786
366.128	834
364.049	774
361.969	812.5
359.888	779
357.807	787
355.725	847
353.643	854
351.561	821
349.477	796
347.394	858
345.31	854
343.226	840
341.141	838.5
339.055	849.5
336.968	887
334.882	850
332.795	900
330.707	887
328.618	890
326.53	903
324.44	919.5
322.351	920
320.26	949
318.17	971
316.078	1003
313.987	1029
311.895	1043.5
309.802	1054.5
307.708	1112.5
305.614	1100
303.52	1167
301.425	1138
299.329	1114.5
297.233	1158.5
295.137	1106.5
293.039	1102.5
290.942	1107.5
288.844	1092
286.745	1114
284.647	1080
282.546	1167
280.446	1129
278.346	1141.5
276.245	1151
274.143	1166
272.041	1198
269.939	1169
267.835	1209
265.731	1210
263.627	1226.5
261.522	1253
259.417	1300
257.311	1284.5
255.204	1261
253.098	1288
250.99	1275
248.882	1339.5
246.774	1337
244.664	1362
242.555	1380
240.445	1358
238.334	1426.5
236.223	1400
234.112	1443
232	1444.5
229.888	1515.5
227.775	1511
225.661	1478
223.546	1538
221.431	1498
219.316	1572
217.201	1570
215.084	1541
212.967	1515
210.85	1609
208.732	1584
206.614	1583
204.495	1603
202.375	1579
200.256	1599
198.135	1571.5
196.014	1557
193.893	1530
191.771	1512
189.648	1542
187.525	1582.5
185.401	1577
183.277	1566
181.152	1516
179.027	1502
176.901	1483
174.775	1577
172.648	1556.5
170.521	1560
168.393	1601.5
166.265	1599
164.136	1592.5
162.007	1637
159.876	1684
157.746	1698
155.615	1672
153.483	1716
151.351	1737
149.219	1822
147.086	1843
144.952	1852
142.818	1975
140.684	2041.5
138.548	1967
136.413	2093
134.276	2142
132.139	2262
130.002	2342
127.864	2285
125.725	2468
123.587	2591
121.447	2694.5
119.307	2773
117.166	2917
115.026	2957.5
112.885	3087
110.743	3260.5
108.6	3319
106.456	3444
104.313	3471
102.169	3485
100.023	3375
97.8789	3268
95.7328	2932
93.5869	2649
91.4392	2327
89.2919	1939
87.1447	1514
84.9959	1157.5
