3528.51	64.5
3527.23	74
3525.95	70.5
3524.67	80.5
3523.39	76
3522.1	85.5
3520.82	69
3519.54	75.5
3518.26	84.5
3516.97	76
3515.69	73.5
3514.4	79.5
3513.12	77.5
3511.84	79.5
3510.55	73.5
3509.26	76
3507.98	86.5
3506.69	87
3505.41	83
3504.12	83
3502.83	91.5
3501.54	82
3500.26	86
3498.97	88.5
3497.68	81
3496.39	95.5
3495.1	95.5
3493.81	102.5
3492.52	97.5
3491.23	106.5
3489.94	107
3488.65	104
3487.36	104.5
3486.07	98
3484.78	102
3483.49	109
3482.19	115
3480.9	115.5
3479.61	115.5
3478.31	114.5
3477.02	117.5
3475.73	124
3474.43	124.5
3473.14	120.5
3471.84	128
3470.54	120
3469.25	136
3467.95	128.5
3466.66	125
3465.36	129.5
3464.06	131
3462.76	135
3461.46	131
3460.17	136.5
3458.87	135
3457.57	133
3456.27	136.5
3454.97	138.5
3453.67	136
3452.37	134
3451.07	129
3449.77	136
3448.47	148.5
3447.16	152
3445.86	145
3444.56	149.5
3443.26	153
3441.95	157
3440.65	156
3439.35	171.5
3438.04	167.5
3436.74	174.5
3435.43	163
3434.13	170
3432.82	183
3431.52	187.5
3430.21	188
3428.9	201
3427.6	193
3426.29	182.5
3424.98	187.5
3423.67	196.5
3422.36	204.5
3421.06	208
3419.75	208
3418.44	219
3417.13	218.5
3415.82	222.5
3414.51	214
3413.2	221.5
3411.88	224.5
3410.57	231.5
3409.26	233.5
3407.95	231
3406.64	222
3405.32	243
3404.01	237
3402.7	240
3401.38	236
3400.07	253
3398.75	248
3397.44	240
3396.12	252.5
3394.81	251
3393.49	247.5
3392.18	265.5
3390.86	263.5
3389.54	260.5
3388.23	251.5
3386.91	265
3385.59	267.5
3384.27	264.5
3382.95	271
3381.63	269
3380.31	281
3378.99	263
3377.67	285
3376.35	278
3375.03	286.5
3373.71	287.5
3372.39	296.5
3371.07	297.5
3369.75	298
3368.42	312
3367.1	285
3365.78	303.5
3364.45	304.5
3363.13	307
3361.81	288
3360.48	310.5
3359.16	314
3357.83	315
3356.51	310.5
3355.18	303
3353.85	306.5
3352.53	324.5
3351.2	321
3349.87	329.5
3348.54	325
3347.22	324
3345.89	335.5
3344.56	329
3343.23	333
3341.9	334
3340.57	329
3339.24	322.5
3337.91	323
3336.58	333
3335.25	332.5
3333.92	345
3332.58	346.5
3331.25	337
3329.92	346
3328.59	343
3327.25	351
3325.92	352
3324.58	356.5
3323.25	346.5
3321.92	350.5
3320.58	366.5
3319.25	358
3317.91	356
3316.57	367.5
3315.24	361
3313.9	367
3312.56	382
3311.23	370.5
3309.89	367.5
3308.55	370.5
3307.21	376
3305.87	368.5
3304.53	369.5
3303.19	374
3301.85	386.5
3300.51	387
3299.17	386
3297.83	374
3296.49	385
3295.15	379
3293.81	399.5
3292.46	393
3291.12	390
3289.78	394.5
3288.43	384.5
3287.09	397.5
3285.75	397.5
3284.4	389.5
3283.06	402.5
3281.71	402
3280.37	406
3279.02	406
3277.67	421
3276.33	416.5
3274.98	404.5
3273.63	422
3272.28	413.5
3270.94	435.5
3269.59	416
3268.24	431.5
3266.89	423
3265.54	445
3264.19	446
3262.84	454.5
3261.49	458.5
3260.14	477
3258.79	491.5
3257.44	497
3256.08	489.5
3254.73	483
3253.38	511
3252.03	524
3250.67	535
3249.32	553.5
3247.96	570.5
3246.61	586
3245.26	597.5
3243.9	609
3242.54	626.5
3241.19	642.5
3239.83	642.5
3238.48	668.5
3237.12	684.5
3235.76	696
3234.41	733
3233.05	749
3231.69	754.5
3230.33	782.5
3228.97	769.5
3227.61	785.5
3226.25	801
3224.89	813
3223.53	855
3222.17	845
3220.81	869.5
3219.45	870
3218.09	887.5
3216.72	892.5
3215.36	890
3214	913
3212.63	929
3211.27	926.5
3209.91	941
3208.54	918
3207.18	943
3205.81	959.5
3204.45	959.5
3203.08	961.5
3201.71	954.5
3200.35	973.5
3198.98	969.5
3197.61	975
3196.25	992.5
3194.88	983
3193.51	988
3192.14	984.5
3190.77	988
3189.4	998.5
3188.03	999
3186.66	1027
3185.29	1022
3183.92	1019
3182.55	1043
3181.18	1034.5
3179.81	1028.5
3178.44	1033.5
3177.06	1050.5
3175.69	1052.5
3174.32	1068
3172.94	1075
3171.57	1100
3170.2	1086
3168.82	1095
3167.45	1098.5
3166.07	1128
3164.69	1128.5
3163.32	1164
3161.94	1134.5
3160.56	1166.5
3159.19	1173
3157.81	1180.5
3156.43	1201
3155.05	1177
3153.67	1211
3152.3	1215
3150.92	1203
3149.54	1215.5
3148.16	1216
3146.78	1232
3145.4	1241.5
3144.01	1250
3142.63	1283
3141.25	1279
3139.87	1288.5
3138.49	1312
3137.1	1304
3135.72	1313.5
3134.34	1313
3132.95	1307.5
3131.57	1325.5
3130.18	1336
3128.8	1325
3127.41	1356
3126.03	1358.5
3124.64	1396
3123.25	1373
3121.87	1374.5
3120.48	1399.5
3119.09	1402
3117.7	1430.5
3116.32	1413.5
3114.93	1441
3113.54	1429
3112.15	1414
3110.76	1438.5
3109.37	1467
3107.98	1468.5
3106.59	1458
3105.2	1488
3103.8	1477
3102.41	1498.5
3101.02	1490
3099.63	1505.5
3098.23	1500.5
3096.84	1510
3095.45	1513.5
3094.05	1498.5
3092.66	1522.5
3091.26	1503
3089.87	1540
3088.47	1524
3087.08	1536.5
3085.68	1586.5
3084.28	1505
3082.89	1565.5
3081.49	1569
3080.09	1558.5
3078.69	1567
3077.3	1539.5
3075.9	1574.5
3074.5	1576
3073.1	1614
3071.7	1603
3070.3	1579.5
3068.9	1630.5
3067.5	1614
3066.09	1592
3064.69	1630
3063.29	1631.5
3061.89	1634
3060.48	1628
3059.08	1631
3057.68	1668.5
3056.27	1629
3054.87	1671
3053.46	1646
3052.06	1675
3050.65	1680.5
3049.25	1678.5
3047.84	1679.5
3046.44	1652
3045.03	1683
3043.62	1709.5
3042.21	1701
3040.81	1704
3039.4	1716.5
3037.99	1716
3036.58	1723.5
3035.17	1739.5
3033.76	1731
3032.35	1760.5
3030.94	1728.5
3029.53	1739
3028.12	1780
3026.71	1774.5
3025.29	1727.5
3023.88	1773.5
3022.47	1765.5
3021.06	1750
3019.64	1770.5
3018.23	1773.5
3016.82	1812
3015.4	1779
3013.99	1779.5
3012.57	1794
3011.15	1800.5
3009.74	1804.5
3008.32	1811
3006.91	1830.5
3005.49	1825
3004.07	1827
3002.65	1854
3001.24	1838
2999.82	1849.5
2998.4	1876
2996.98	1859.5
2995.56	1895.5
2994.14	1899.5
2992.72	1893
2991.3	1865.5
2989.88	1890.5
2988.46	1923
2987.03	1903.5
2985.61	1960
2984.19	1921
2982.77	1981.5
2981.34	1983.5
2979.92	1960.5
2978.49	2008.5
2977.07	2021
2975.65	2021.5
2974.22	2046
2972.79	2047.5
2971.37	2052.5
2969.94	2064
2968.52	2110.5
2967.09	2100
2965.66	2098
2964.23	2120.5
2962.81	2121.5
2961.38	2105.5
2959.95	2166.5
2958.52	2153
2957.09	2161.5
2955.66	2211.5
2954.23	2215
2952.8	2195.5
2951.37	2196.5
2949.94	2265
2948.5	2224
2947.07	2243.5
2945.64	2288
2944.21	2303.5
2942.77	2274.5
2941.34	2307
2939.91	2343
2938.47	2357.5
2937.04	2364
2935.6	2369
2934.17	2399.5
2932.73	2414.5
2931.29	2433.5
2929.86	2431.5
2928.42	2455.5
2926.98	2477
2925.55	2460.5
2924.11	2502
2922.67	2485.5
2921.23	2490.5
2919.79	2517
2918.35	2541
2916.91	2525.5
2915.47	2532.5
2914.03	2570.5
2912.59	2561.5
2911.15	2571.5
2909.71	2551.5
2908.26	2576
2906.82	2553
2905.38	2580.5
2903.94	2611.5
2902.49	2625.5
2901.05	2620.5
2899.6	2667
2898.16	2623
2896.71	2648
2895.27	2633
2893.82	2684
2892.38	2655.5
2890.93	2695.5
2889.48	2684
2888.03	2666
2886.59	2684.5
2885.14	2667.5
2883.69	2692
2882.24	2738.5
2880.79	2679.5
2879.34	2718
2877.89	2713.5
2876.44	2732
2874.99	2708
2873.54	2697
2872.09	2670.5
2870.64	2699
2869.18	2678
2867.73	2672.5
2866.28	2684
2864.83	2725
2863.37	2676
2861.92	2705
2860.46	2691
2859.01	2719
2857.55	2729.5
2856.1	2752
2854.64	2697
2853.19	2709.5
2851.73	2701.5
2850.27	2708.5
2848.81	2717.5
2847.36	2681
2845.9	2689
2844.44	2662
2842.98	2634
2841.52	2582
2840.06	2557.5
2838.6	2479.5
2837.14	2527.5
2835.68	2479
2834.22	2464
2832.76	2417.5
2831.3	2408
2829.83	2398
2828.37	2384.5
2826.91	2356.5
2825.44	2366
2823.98	2345.5
2822.52	2319.5
2821.05	2327
2819.59	2277.5
2818.12	2263.5
2816.66	2296.5
2815.19	2247
2813.72	2239
2812.26	2246.5
2810.79	2241.5
2809.32	2213.5
2807.85	2234.5
2806.38	2210
2804.92	2226
2803.45	2210.5
2801.98	2218
2800.51	2238.5
2799.04	2201.5
2797.57	2191
2796.1	2196.5
2794.62	2195
2793.15	2197.5
2791.68	2200.5
2790.21	2199.5
2788.73	2181.5
2787.26	2185
2785.79	2189.5
2784.31	2183
2782.84	2177.5
2781.36	2158.5
2779.89	2209.5
2778.41	2176
2776.94	2219.5
2775.46	2217.5
2773.99	2194
2772.51	2215
2771.03	2202
2769.55	2235
2768.07	2223.5
2766.6	2235
2765.12	2207.5
2763.64	2216.5
2762.16	2230
2760.68	2225.5
2759.2	2216.5
2757.72	2226.5
2756.24	2204.5
2754.75	2209
2753.27	2222.5
2751.79	2235.5
2750.31	2220
2748.82	2211.5
2747.34	2209
2745.86	2190
2744.37	2248
2742.89	2198
2741.4	2213.5
2739.92	2181
2738.43	2191
2736.94	2211.5
2735.46	2199
2733.97	2208.5
2732.48	2249.5
2731	2208
2729.51	2215
2728.02	2212.5
2726.53	2192
2725.04	2177
2723.55	2170
2722.06	2186.5
2720.57	2202.5
2719.08	2192.5
2717.59	2192
2716.1	2230.5
2714.61	2215
2713.11	2215.5
2711.62	2195
2710.13	2219
2708.64	2203
2707.14	2182.5
2705.65	2178.5
2704.15	2192
2702.66	2178.5
2701.16	2189.5
2699.67	2182
2698.17	2153
2696.67	2174
2695.18	2150
2693.68	2148
2692.18	2177
2690.69	2160
2689.19	2174
2687.69	2151
2686.19	2130.5
2684.69	2120
2683.19	2146
2681.69	2123.5
2680.19	2131
2678.69	2137
2677.19	2121.5
2675.68	2106
2674.18	2120.5
2672.68	2135.5
2671.18	2142.5
2669.67	2127.5
2668.17	2125
2666.66	2122.5
2665.16	2086.5
2663.66	2108
2662.15	2121.5
2660.64	2079.5
2659.14	2104
2657.63	2097.5
2656.13	2122.5
2654.62	2071.5
2653.11	2088.5
2651.6	2067
2650.09	2076.5
2648.58	2074
2647.08	2042.5
2645.57	2075
2644.06	2068.5
2642.55	2035.5
2641.04	2056
2639.52	2018.5
2638.01	2047
2636.5	2017
2634.99	2049.5
2633.48	2006.5
2631.96	1989.5
2630.45	2026.5
2628.94	2018.5
2627.42	1986.5
2625.91	1987
2624.39	1977.5
2622.88	1971
2621.36	1984
2619.85	2019
2618.33	1968
2616.81	1985.5
2615.3	1989
2613.78	2004.5
2612.26	2002.5
2610.74	1965
2609.22	1951.5
2607.7	1952
2606.18	1933.5
2604.66	1938
2603.14	1944
2601.62	1905
2600.1	1965.5
2598.58	1917
2597.06	1917
2595.54	1930.5
2594.01	1955.5
2592.49	1921
2590.97	1933
2589.44	1909
2587.92	1908.5
2586.39	1880.5
2584.87	1906
2583.34	1907.5
2581.82	1865
2580.29	1890.5
2578.76	1897.5
2577.24	1878.5
2575.71	1877.5
2574.18	1886.5
2572.65	1884
2571.13	1875.5
2569.6	1868
2568.07	1868.5
2566.54	1864.5
2565.01	1869
2563.48	1898.5
2561.95	1859.5
2560.42	1870.5
2558.88	1860
2557.35	1837
2555.82	1848
2554.29	1813.5
2552.75	1842
2551.22	1819.5
2549.69	1822
2548.15	1809
2546.62	1811.5
2545.08	1811.5
2543.55	1789.5
2542.01	1806.5
2540.47	1780
2538.94	1776.5
2537.4	1778.5
2535.86	1790
2534.33	1763
2532.79	1774
2531.25	1748
2529.71	1774
2528.17	1744.5
2526.63	1748
2525.09	1764
2523.55	1737.5
2522.01	1722
2520.47	1712.5
2518.92	1731
2517.38	1732.5
2515.84	1718.5
2514.3	1720.5
2512.75	1709
2511.21	1697.5
2509.67	1702
2508.12	1683.5
2506.58	1641.5
2505.03	1661
2503.49	1662.5
2501.94	1659.5
2500.39	1695
2498.85	1674
2497.3	1662
2495.75	1670.5
2494.2	1658
2492.65	1659
2491.11	1654.5
2489.56	1620.5
2488.01	1618.5
2486.46	1621.5
2484.91	1611.5
2483.36	1595.5
2481.8	1580
2480.25	1591
2478.7	1600
2477.15	1558.5
2475.6	1556.5
2474.04	1566.5
2472.49	1555.5
2470.93	1551.5
2469.38	1554
2467.83	1537
2466.27	1552
2464.71	1542
2463.16	1519
2461.6	1541
2460.05	1516.5
2458.49	1516
2456.93	1488.5
2455.37	1516
2453.81	1505.5
2452.26	1493.5
2450.7	1485.5
2449.14	1477
2447.58	1473
2446.02	1468
2444.46	1453
2442.9	1478.5
2441.33	1441
2439.77	1448
2438.21	1421
2436.65	1443.5
2435.08	1452
2433.52	1459
2431.96	1438
2430.39	1426.5
2428.83	1427.5
2427.26	1456.5
2425.7	1441
2424.13	1417
2422.56	1415
2421	1436.5
2419.43	1418.5
2417.86	1426.5
2416.3	1405.5
2414.73	1401
2413.16	1378
2411.59	1415.5
2410.02	1405.5
2408.45	1360
2406.88	1374.5
2405.31	1383.5
2403.74	1366.5
2402.17	1372.5
2400.6	1391.5
2399.02	1384
2397.45	1350
2395.88	1372
2394.3	1362
2392.73	1358
2391.16	1366
2389.58	1391.5
2388.01	1368
2386.43	1372.5
2384.86	1357
2383.28	1352.5
2381.7	1354
2380.13	1341.5
2378.55	1340
2376.97	1368.5
2375.39	1315.5
2373.81	1342
2372.23	1342
2370.65	1333
2369.07	1332.5
2367.49	1314.5
2365.91	1336
2364.33	1324
2362.75	1313
2361.17	1317
2359.59	1300.5
2358.01	1298.5
2356.42	1305.5
2354.84	1275
2353.25	1281.5
2351.67	1305
2350.09	1288
2348.5	1292
2346.92	1268.5
2345.33	1284
2343.74	1288
2342.16	1239
2340.57	1302.5
2338.98	1253
2337.39	1273.5
2335.81	1250
2334.22	1247.5
2332.63	1258
2331.04	1227.5
2329.45	1299
2327.86	1244
2326.27	1245.5
2324.68	1263.5
2323.09	1234
2321.49	1242
2319.9	1238.5
2318.31	1241.5
2316.72	1213
2315.12	1228
2313.53	1228
2311.93	1225.5
2310.34	1212.5
2308.74	1209.5
2307.15	1224
2305.55	1216.5
2303.96	1201.5
2302.36	1185
2300.76	1189
2299.17	1192
2297.57	1183.5
2295.97	1178
2294.37	1182
2292.77	1178.5
2291.17	1188.5
2289.57	1153
2287.97	1165.5
2286.37	1166
2284.77	1160.5
2283.17	1162.5
2281.57	1146
2279.96	1148.5
2278.36	1148.5
2276.76	1108
2275.15	1141
2273.55	1129
2271.95	1111.5
2270.34	1122.5
2268.74	1123.5
2267.13	1131
2265.52	1112
2263.92	1102
2262.31	1114
2260.7	1092.5
2259.1	1116.5
2257.49	1088
2255.88	1071.5
2254.27	1085.5
2252.66	1090.5
2251.05	1089
2249.44	1102
2247.83	1088
2246.22	1093.5
2244.61	1090
2243	1083
2241.39	1087.5
2239.77	1066.5
2238.16	1055.5
2236.55	1048.5
2234.93	1053
2233.32	1051
2231.7	1042.5
2230.09	1045
2228.47	1021.5
2226.86	1033
2225.24	1038
2223.63	1038.5
2222.01	1017.5
2220.39	1022.5
2218.77	1025
2217.16	1013.5
2215.54	1004.5
2213.92	1012
2212.3	1002
2210.68	999.5
2209.06	1005
2207.44	991.5
2205.82	985.5
2204.19	974.5
2202.57	1007.5
2200.95	976.5
2199.33	953.5
2197.7	978.5
2196.08	985
2194.46	979
2192.83	974
2191.21	997.5
2189.58	975.5
2187.96	970.5
2186.33	966
2184.7	954
2183.08	980
2181.45	940.5
2179.82	961.5
2178.19	944.5
2176.57	931.5
2174.94	944
2173.31	938
2171.68	916
2170.05	920
2168.42	935.5
2166.79	935
2165.16	894.5
2163.52	920.5
2161.89	927.5
2160.26	912
2158.63	899
2156.99	901
2155.36	912
2153.73	901.5
2152.09	888
2150.46	878
2148.82	877.5
2147.18	888.5
2145.55	872
2143.91	880
2142.27	867.5
2140.64	858
2139	856
2137.36	856.5
2135.72	867
2134.08	857.5
2132.44	850
2130.8	840
2129.16	838
2127.52	849
2125.88	836
2124.24	834.5
2122.6	834
2120.95	829
2119.31	824
2117.67	803.5
2116.02	791
2114.38	819
2112.74	804
2111.09	812.5
2109.45	810
2107.8	793.5
2106.15	789.5
2104.51	789
2102.86	774
2101.21	796.5
2099.56	782
2097.92	764.5
2096.27	777.5
2094.62	785.5
2092.97	775.5
2091.32	755
2089.67	763
2088.02	795
2086.37	755
2084.72	774
2083.06	781
2081.41	770.5
2079.76	765.5
2078.1	769
2076.45	760.5
2074.8	759.5
2073.14	770.5
2071.49	772.5
2069.83	755.5
2068.18	765
2066.52	734.5
2064.86	731.5
2063.21	749.5
2061.55	745.5
2059.89	745
2058.23	746
2056.57	721.5
2054.92	726
2053.26	744
2051.6	735
2049.94	740
2048.27	731
2046.61	723.5
2044.95	735
2043.29	720
2041.63	711
2039.97	711.5
2038.3	708
2036.64	695.5
2034.97	708
2033.31	705.5
2031.64	685
2029.98	716.5
2028.31	696.5
2026.65	701
2024.98	698
2023.31	683
2021.65	672
2019.98	685
2018.31	681
2016.64	679.5
2014.97	669.5
2013.3	670
2011.63	666.5
2009.96	662.5
2008.29	643.5
2006.62	667
2004.95	662
2003.28	659.5
2001.6	640
1999.93	638.5
1998.26	645.5
1996.58	646.5
1994.91	660
1993.24	656.5
1991.56	648.5
1989.89	639.5
1988.21	636
1986.53	649.5
1984.86	651
1983.18	612
1981.5	618
1979.82	634
1978.15	632.5
1976.47	616
1974.79	620.5
1973.11	619
1971.43	627
1969.75	625
1968.07	618.5
1966.38	609.5
1964.7	594
1963.02	603
1961.34	600.5
1959.66	598.5
1957.97	589.5
1956.29	594
1954.6	594
1952.92	589
1951.23	589.5
1949.55	576
1947.86	584.5
1946.18	588
1944.49	570
1942.8	585
1941.11	594
1939.43	577
1937.74	585
1936.05	573
1934.36	576.5
1932.67	584.5
1930.98	569
1929.29	575
1927.6	577
1925.91	558
1924.21	549.5
1922.52	550.5
1920.83	546
1919.14	558
1917.44	554
1915.75	565
1914.05	559
1912.36	555
1910.66	547.5
1908.97	541.5
1907.27	540.5
1905.58	537.5
1903.88	523
1902.18	526
1900.48	517.5
1898.79	520
1897.09	517.5
1895.39	515.5
1893.69	525.5
1891.99	517.5
1890.29	509.5
1888.59	520.5
1886.89	513
1885.18	509
1883.48	512
1881.78	495
1880.08	505.5
1878.37	496.5
1876.67	495.5
1874.96	497
1873.26	497.5
1871.55	485
1869.85	491
1868.14	484.5
1866.44	488.5
1864.73	500
1863.02	504
1861.32	489
1859.61	479
1857.9	480
1856.19	485.5
1854.48	477.5
1852.77	468.5
1851.06	461
1849.35	460.5
1847.64	476.5
1845.93	479
1844.21	473
1842.5	453.5
1840.79	471
1839.08	462
1837.36	464
1835.65	468
1833.93	468.5
1832.22	448
1830.5	457
1828.79	456.5
1827.07	454
1825.36	459.5
1823.64	455
1821.92	442
1820.2	451
1818.48	452
1816.77	436.5
1815.05	456.5
1813.33	459.5
1811.61	444.5
1809.89	448.5
1808.16	440.5
1806.44	422.5
1804.72	448
1803	440
1801.28	451
1799.55	437.5
1797.83	437
1796.11	433
1794.38	432
1792.66	426
1790.93	437
1789.21	422.5
1787.48	438.5
1785.75	443
1784.03	420.5
1782.3	425
1780.57	412.5
1778.84	438.5
1777.11	427
1775.38	424.5
1773.66	438
1771.93	430.5
1770.19	433
1768.46	434
1766.73	437
1765	429
1763.27	447.5
1761.54	473.5
1759.8	474
1758.07	492
1756.34	498.5
1754.6	507.5
1752.87	542.5
1751.13	532
1749.4	526.5
1747.66	542.5
1745.92	552.5
1744.19	532
1742.45	528.5
1740.71	527.5
1738.97	504
1737.23	496
1735.49	483.5
1733.75	464
1732.01	460.5
1730.27	448.5
1728.53	441.5
1726.79	423
1725.05	437
1723.31	424
1721.57	419
1719.82	411.5
1718.08	400
1716.34	414
1714.59	398.5
1712.85	391
1711.1	390
1709.36	394
1707.61	395
1705.86	398
1704.12	398.5
1702.37	403
1700.62	405
1698.87	399
1697.12	394
1695.37	401.5
1693.62	387.5
1691.87	396
1690.12	394
1688.37	393
1686.62	400.5
1684.87	400
1683.12	395
1681.36	404
1679.61	412
1677.86	416.5
1676.1	424
1674.35	442
1672.59	455
1670.84	479
1669.08	519
1667.33	541
1665.57	590.5
1663.81	634
1662.06	715.5
1660.3	779.5
1658.54	816
1656.78	834
1655.02	797
1653.26	773
1651.5	712.5
1649.74	660
1647.98	606
1646.22	564
1644.46	499.5
1642.7	478
1640.93	479.5
1639.17	424
1637.41	435.5
1635.64	404
1633.88	398
1632.11	400.5
1630.35	399
1628.58	390
1626.81	400.5
1625.05	392
1623.28	387
1621.51	376.5
1619.75	376
1617.98	355
1616.21	368
1614.44	377
1612.67	359
1610.9	359
1609.13	357.5
1607.36	364.5
1605.58	361.5
1603.81	363.5
1602.04	360
1600.27	355.5
1598.49	364.5
1596.72	360.5
1594.95	358
1593.17	360
1591.4	357.5
1589.62	355.5
1587.84	359
1586.07	375
1584.29	357
1582.51	346
1580.74	357
1578.96	354
1577.18	347.5
1575.4	352
1573.62	354.5
1571.84	349
1570.06	349.5
1568.28	347
1566.5	364
1564.72	328
1562.93	360.5
1561.15	352
1559.37	354.5
1557.58	357.5
1555.8	351
1554.02	359
1552.23	357
1550.45	350.5
1548.66	352
1546.87	361
1545.09	359
1543.3	346
1541.51	352
1539.72	354
1537.94	368
1536.15	359.5
1534.36	353.5
1532.57	336
1530.78	345
1528.99	337
1527.2	368
1525.4	362.5
1523.61	362
1521.82	359
1520.03	349
1518.23	368
1516.44	375
1514.65	365
1512.85	374.5
1511.06	358.5
1509.26	367.5
1507.46	386
1505.67	385.5
1503.87	387
1502.07	405
1500.28	397.5
1498.48	407.5
1496.68	417
1494.88	413
1493.08	414
1491.28	434.5
1489.48	441.5
1487.68	480
1485.88	479.5
1484.08	490
1482.27	533
1480.47	529.5
1478.67	559.5
1476.86	611
1475.06	653.5
1473.25	685
1471.45	756.5
1469.64	822
1467.84	880
1466.03	937.5
1464.23	999.5
1462.42	1082
1460.61	1116.5
1458.8	1209.5
1456.99	1230.5
1455.18	1253.5
1453.37	1323
1451.56	1340
1449.75	1396.5
1447.94	1432
1446.13	1499
1444.32	1548
1442.51	1583.5
1440.7	1584.5
1438.88	1580
1437.07	1479
1435.26	1337
1433.44	1185
1431.63	1043.5
1429.81	894
1427.99	828.5
1426.18	716
1424.36	673.5
1422.54	628
1420.73	620.5
1418.91	585
1417.09	569
1415.27	546
1413.45	518.5
1411.63	495
1409.81	471
1407.99	476
1406.17	461.5
1404.35	441
1402.53	449.5
1400.7	420
1398.88	432.5
1397.06	418.5
1395.23	419.5
1393.41	413.5
1391.58	401
1389.76	396
1387.93	395
1386.11	411.5
1384.28	395
1382.45	398.5
1380.62	404
1378.8	436
1376.97	432
1375.14	447
1373.31	452.5
1371.48	468.5
1369.65	468
1367.82	462
1365.99	440
1364.16	444.5
1362.32	461
1360.49	444.5
1358.66	441
1356.82	454
1354.99	449.5
1353.16	455
1351.32	462
1349.48	451
1347.65	465
1345.81	467.5
1343.98	473
1342.14	461
1340.3	469.5
1338.46	469.5
1336.62	473.5
1334.79	496
1332.95	530
1331.11	541.5
1329.27	565.5
1327.42	603
1325.58	620.5
1323.74	657
1321.9	711
1320.06	730.5
1318.21	771.5
1316.37	820
1314.53	862
1312.68	913
1310.84	1001.5
1308.99	1058.5
1307.15	1116.5
1305.3	1194.5
1303.45	1238.5
1301.61	1272
1299.76	1252
1297.91	1230.5
1296.06	1128.5
1294.21	1047.5
1292.36	930.5
1290.51	878.5
1288.66	829
1286.81	794.5
1284.96	791.5
1283.11	786.5
1281.26	761.5
1279.4	766
1277.55	773
1275.7	766
1273.84	796.5
1271.99	808
1270.13	781.5
1268.28	818.5
1266.42	814.5
1264.56	778
1262.71	771
1260.85	771.5
1258.99	743.5
1257.13	716.5
1255.27	695
1253.41	681
1251.56	647.5
1249.7	608
1247.83	577
1245.97	597
1244.11	567
1242.25	538
1240.39	531.5
1238.52	522
1236.66	507
1234.8	494
1232.93	496
1231.07	491.5
1229.2	466.5
1227.34	456
1225.47	467
1223.6	446.5
1221.74	426
1219.87	445.5
1218	442.5
1216.13	427
1214.26	421
1212.39	427.5
1210.53	413.5
1208.65	428.5
1206.78	424
1204.91	413
1203.04	436
1201.17	431.5
1199.3	423
1197.42	428
1195.55	423
1193.68	420.5
1191.8	417
1189.93	421
1188.05	431
1186.17	415.5
1184.3	428.5
1182.42	429
1180.54	438
1178.67	447
1176.79	416
1174.91	442
1173.03	428.5
1171.15	446
1169.27	436
1167.39	427
1165.51	433
1163.63	440
1161.75	439
1159.86	420.5
1157.98	441
1156.1	436
1154.21	439
1152.33	437.5
1150.44	440
1148.56	446.5
1146.67	465
1144.79	475.5
1142.9	466
1141.01	477
1139.12	489.5
1137.24	523.5
1135.35	555
1133.46	610.5
1131.57	658.5
1129.68	673
1127.79	694
1125.9	675.5
1124.01	670.5
1122.12	657
1120.22	667
1118.33	643
1116.44	656
1114.54	635.5
1112.65	623
1110.75	623.5
1108.86	634.5
1106.96	642
1105.07	669.5
1103.17	695
1101.27	729
1099.38	765
1097.48	803
1095.58	811
1093.68	833
1091.78	876.5
1089.88	893.5
1087.98	928
1086.08	948.5
1084.18	966
1082.28	994
1080.38	965
1078.47	934
1076.57	937
1074.67	939
1072.76	920
1070.86	939
1068.95	941
1067.05	974.5
1065.14	980.5
1063.24	994.5
1061.33	945.5
1059.42	886
1057.51	821
1055.6	758.5
1053.7	738
1051.79	694
1049.88	701.5
1047.97	678
1046.06	674.5
1044.14	658.5
1042.23	663
1040.32	670
1038.41	651.5
1036.5	677
1034.58	664
1032.67	646.5
1030.75	654
1028.84	672
1026.92	653.5
1025.01	657.5
1023.09	660.5
1021.17	650
1019.26	627.5
1017.34	630
1015.42	642
1013.5	631
1011.58	614
1009.66	596.5
1007.74	599.5
1005.82	593.5
1003.9	592.5
1001.98	586
1000.06	573
998.134	574
996.212	583
994.288	585.5
992.364	589.5
990.44	600.5
988.515	605.5
986.589	607
984.663	654
982.737	625
980.81	672
978.883	689.5
976.955	718.5
975.027	733
973.098	745.5
971.169	765.5
969.239	730.5
967.308	720
965.378	732
963.447	713
961.516	726
959.583	731.5
957.65	708
955.718	708
953.784	726.5
951.85	730
949.916	726.5
947.981	745
946.045	755.5
944.109	745
942.173	745
940.236	763
938.298	758
936.36	756.5
934.422	738.5
932.484	759
930.544	723
928.604	733.5
926.664	750
924.724	745.5
922.782	735
920.84	745
918.898	739.5
916.955	746
915.012	744
913.068	750
911.124	749.5
909.18	738
907.235	753.5
905.289	781
903.343	769
901.397	809
899.45	811.5
897.502	817.5
895.554	860
893.605	876
891.657	901.5
889.707	904.5
887.758	904
885.807	893.5
883.856	888.5
881.905	887
879.953	890
878.001	916
876.048	932
874.094	930.5
872.14	935
870.186	948.5
868.232	903.5
866.276	924.5
864.321	902.5
862.365	928
860.408	871
858.451	904
856.493	866
854.535	891.5
852.576	859
850.617	870
848.658	885
846.698	876.5
844.737	877
842.776	850
840.814	843
838.852	845.5
836.89	824.5
834.927	809.5
832.963	757.5
830.999	764.5
829.035	728
827.07	713.5
825.105	721.5
823.139	693
821.172	664.5
819.206	665
817.238	639
815.27	627
813.301	642
811.333	612
809.363	622
807.394	605
805.424	558.5
803.453	561
801.482	555
799.509	554
797.538	514.5
795.565	525.5
793.592	513.5
791.618	504
789.643	498.5
787.669	496.5
785.693	489
783.718	518
781.742	494
779.765	512.5
777.788	507.5
775.811	504
773.832	522.5
771.853	506
769.875	505.5
767.895	515
765.915	499
763.934	505
761.953	487.5
759.972	488
757.99	504.5
756.007	510
754.024	503.5
752.041	495
750.056	497
748.072	507.5
746.087	519.5
744.102	511.5
742.116	521.5
740.13	530
738.143	519
736.155	517.5
734.167	503.5
732.179	521
730.19	530
728.2	536.5
726.21	534.5
724.22	534
722.229	522.5
720.237	514.5
718.246	515.5
716.253	527
714.26	495.5
712.267	504.5
710.273	501.5
708.279	491
706.284	478.5
704.289	477
702.293	470.5
700.296	486.5
698.3	466
696.303	472
694.305	458.5
692.307	468
690.307	468
688.308	488.5
686.309	452.5
684.308	451.5
682.308	457.5
680.306	451
678.304	472.5
676.302	462.5
674.3	472.5
672.296	472.5
670.293	480.5
668.289	466
666.284	462
664.278	474.5
662.273	485.5
660.266	484.5
658.26	488.5
656.252	485
654.244	486.5
652.237	485
650.227	488
648.218	489.5
646.209	485.5
644.198	504.5
642.188	487.5
640.177	524
638.165	503.5
636.153	512
634.14	521.5
632.128	531.5
630.113	528.5
628.099	512
626.085	537
624.07	525.5
622.054	526
620.038	535
618.021	549
616.004	555.5
613.986	568
611.968	574
609.949	580.5
607.93	580.5
605.911	595.5
603.891	604
601.87	570.5
599.848	570
597.827	571
595.805	572.5
593.782	576.5
591.759	549
589.735	573
587.711	583.5
585.687	553.5
583.661	558.5
581.636	554
579.609	562
577.583	535.5
575.555	525
573.527	536.5
571.5	532.5
569.471	536.5
567.441	546
565.412	540.5
563.382	528
561.351	555
559.32	568
557.289	559
555.257	570
553.223	575.5
551.19	595.5
549.157	597.5
547.122	613
545.088	600.5
543.053	625
541.017	642
538.981	690
536.943	728
534.907	776.5
532.869	882.5
530.831	1073
528.792	1377.5
526.752	1918.5
524.713	2680
522.673	3418
520.632	3600
518.591	3151
516.549	2378
514.507	1755
512.464	1285
510.42	1029
508.377	852
506.332	806
504.288	736
502.242	721.5
500.196	699.5
498.15	693.5
496.104	660.5
494.056	686
492.008	681.5
489.96	661
487.911	678
485.862	701
483.812	670
481.761	677
479.71	659
477.659	673
475.607	677
473.555	664
471.502	676.5
469.448	639.5
467.395	667.5
465.34	670
463.285	688
461.23	648
459.174	682.5
457.118	672
455.061	674
453.003	663.5
450.945	680
448.887	683.5
446.828	699.5
444.768	688
442.708	697
440.647	703
438.587	716
436.525	724.5
434.463	706
432.4	703
430.337	719
428.274	710.5
426.21	737.5
424.145	743
422.079	742.5
420.014	720
417.948	750.5
415.882	736.5
413.814	769.5
411.746	759.5
409.679	733
407.609	748
405.54	758
403.47	768.5
401.401	755
399.329	762
397.258	758.5
395.187	764.5
393.114	736
391.041	748.5
388.968	752.5
386.895	770.5
384.82	778.5
382.745	758.5
380.67	772
378.594	794
376.517	778
374.44	790
372.363	804.5
370.286	784.5
368.207	778
366.128	801
364.049	794
361.969	796.5
359.888	808
357.807	795.5
355.725	808
353.643	801.5
351.561	791.5
349.477	816
347.394	827.5
345.31	842
343.226	840.5
341.141	838.5
339.055	831.5
336.968	820
334.882	825
332.795	854
330.707	844.5
328.618	855.5
326.53	840
324.44	863.5
322.351	882
320.26	894.5
318.17	920
316.078	918.5
313.987	952
311.895	956.5
309.802	992.5
307.708	994
305.614	1023
303.52	1011
301.425	1023
299.329	1031.5
297.233	1044.5
295.137	1013.5
293.039	1005
290.942	1012
288.844	1030.5
286.745	1030.5
284.647	1028
282.546	1022.5
280.446	1031
278.346	1081.5
276.245	1071
274.143	1084.5
272.041	1082.5
269.939	1105.5
267.835	1092
265.731	1117.5
263.627	1107
261.522	1112
259.417	1143.5
257.311	1154
255.204	1172
253.098	1186.5
250.99	1178.5
248.882	1182.5
246.774	1218.5
244.664	1211.5
242.555	1250.5
240.445	1258.5
238.334	1263
236.223	1278.5
234.112	1284
232	1296.5
229.888	1334.5
227.775	1337
225.661	1360.5
223.546	1352
221.431	1400.5
219.316	1376.5
217.201	1398.5
215.084	1384
212.967	1391.5
210.85	1389.5
208.732	1432.5
206.614	1433.5
204.495	1405.5
202.375	1412
200.256	1430.5
198.135	1410.5
196.014	1397
193.893	1403
191.771	1419.5
189.648	1409
187.525	1392
185.401	1403.5
183.277	1381.5
181.152	1379.5
179.027	1381
176.901	1415.5
174.775	1410.5
172.648	1387.5
170.521	1405
168.393	1447.5
166.265	1450
164.136	1503
162.007	1502.5
159.876	1506.5
157.746	1521.5
155.615	1558
153.483	1582
151.351	1635.5
149.219	1642
147.086	1690
144.952	1756
142.818	1784
140.684	1823.5
138.548	1874.5
136.413	1900.5
134.276	1954
132.139	2036.5
130.002	2034
127.864	2139
125.725	2167.5
123.587	2220.5
121.447	2280
119.307	2383.5
117.166	2467.5
115.026	2535
112.885	2595.5
110.743	2675.5
108.6	2815
106.456	2820
104.313	2859.5
102.169	2889.5
100.023	2782
97.8789	2659.5
95.7328	2438.5
93.5869	2166.5
91.4392	1855.5
89.2919	1521
87.1447	1199
84.9959	944
