3528.51	79
3527.23	77.5
3525.95	91
3524.67	88.5
3523.39	87.5
3522.1	91
3520.82	93.5
3519.54	81.5
3518.26	84
3516.97	87.5
3515.69	85.5
3514.4	86.5
3513.12	85.5
3511.84	86
3510.55	90.5
3509.26	92.5
3507.98	98
3506.69	88.5
3505.41	93
3504.12	86
3502.83	94
3501.54	91
3500.26	97
3498.97	97.5
3497.68	94
3496.39	98.5
3495.1	100
3493.81	103
3492.52	108
3491.23	102
3489.94	103.5
3488.65	108.5
3487.36	104.5
3486.07	109.5
3484.78	114
3483.49	113
3482.19	112
3480.9	129.5
3479.61	110.5
3478.31	124.5
3477.02	119.5
3475.73	119.5
3474.43	121.5
3473.14	119
3471.84	124
3470.54	114.5
3469.25	123
3467.95	126.5
3466.66	118.5
3465.36	134.5
3464.06	134
3462.76	129
3461.46	126.5
3460.17	129.5
3458.87	135
3457.57	124
3456.27	138
3454.97	129.5
3453.67	133.5
3452.37	146.5
3451.07	142.5
3449.77	139.5
3448.47	146
3447.16	138
3445.86	143
3444.56	140
3443.26	140
3441.95	147
3440.65	156.5
3439.35	148.5
3438.04	162
3436.74	170
3435.43	160.5
3434.13	171.5
3432.82	172.5
3431.52	170.5
3430.21	163
3428.9	170.5
3427.6	176.5
3426.29	179.5
3424.98	182.5
3423.67	187.5
3422.36	182
3421.06	184.5
3419.75	188
3418.44	188.5
3417.13	199.5
3415.82	197.5
3414.51	202.5
3413.2	197
3411.88	195.5
3410.57	203.5
3409.26	210.5
3407.95	209
3406.64	212
3405.32	213.5
3404.01	219.5
3402.7	214.5
3401.38	224
3400.07	221
3398.75	219.5
3397.44	214
3396.12	228
3394.81	221
3393.49	229
3392.18	228
3390.86	231.5
3389.54	229.5
3388.23	236
3386.91	242.5
3385.59	242
3384.27	238
3382.95	234.5
3381.63	246
3380.31	252.5
3378.99	251.5
3377.67	254
3376.35	249.5
3375.03	264.5
3373.71	267.5
3372.39	260.5
3371.07	260.5
3369.75	264.5
3368.42	262.5
3367.1	265.5
3365.78	272.5
3364.45	269.5
3363.13	271.5
3361.81	274.5
3360.48	290.5
3359.16	287.5
3357.83	289.5
3356.51	284
3355.18	280
3353.85	275.5
3352.53	277
3351.2	278.5
3349.87	286.5
3348.54	294
3347.22	292
3345.89	280.5
3344.56	297
3343.23	293
3341.9	290.5
3340.57	297.5
3339.24	296.5
3337.91	283.5
3336.58	289.5
3335.25	291.5
3333.92	301.5
3332.58	298
3331.25	311.5
3329.92	314.5
3328.59	312.5
3327.25	320.5
3325.92	313
3324.58	313.5
3323.25	317.5
3321.92	310
3320.58	312.5
3319.25	312
3317.91	320
3316.57	320
3315.24	332.5
3313.9	341.5
3312.56	343
3311.23	336
3309.89	335.5
3308.55	344.5
3307.21	325.5
3305.87	341
3304.53	337.5
3303.19	324
3301.85	334
3300.51	342
3299.17	347.5
3297.83	344
3296.49	349
3295.15	347.5
3293.81	341.5
3292.46	346
3291.12	350
3289.78	355.5
3288.43	348.5
3287.09	348
3285.75	353
3284.4	353
3283.06	354
3281.71	353.5
3280.37	365.5
3279.02	368
3277.67	360.5
3276.33	367.5
3274.98	370.5
3273.63	370.5
3272.28	369.5
3270.94	381
3269.59	376.5
3268.24	384
3266.89	397
3265.54	396
3264.19	397.5
3262.84	408.5
3261.49	410.5
3260.14	423.5
3258.79	420
3257.44	435.5
3256.08	436
3254.73	444
3253.38	449
3252.03	470.5
3250.67	481
3249.32	500
3247.96	509
3246.61	510
3245.26	530
3243.9	537
3242.54	543
3241.19	579.5
3239.83	580
3238.48	587
3237.12	621
3235.76	627
3234.41	646
3233.05	662
3231.69	658.5
3230.33	668
3228.97	694.5
3227.61	707
3226.25	722
3224.89	731.5
3223.53	743.5
3222.17	742
3220.81	776
3219.45	787
3218.09	772.5
3216.72	777.5
3215.36	791
3214	788
3212.63	805.5
3211.27	814.5
3209.91	822.5
3208.54	806
3207.18	844
3205.81	818
3204.45	851.5
3203.08	839.5
3201.71	835
3200.35	852
3198.98	840
3197.61	854.5
3196.25	872
3194.88	867.5
3193.51	879.5
3192.14	894
3190.77	886.5
3189.4	896.5
3188.03	885
3186.66	900
3185.29	896.5
3183.92	882.5
3182.55	903.5
3181.18	897.5
3179.81	912.5
3178.44	931.5
3177.06	939
3175.69	933.5
3174.32	947
3172.94	952.5
3171.57	967.5
3170.2	962.5
3168.82	971.5
3167.45	988.5
3166.07	968.5
3164.69	983
3163.32	992.5
3161.94	1015.5
3160.56	1007
3159.19	1012.5
3157.81	1033.5
3156.43	1046.5
3155.05	1032
3153.67	1047
3152.3	1046
3150.92	1068
3149.54	1077
3148.16	1085
3146.78	1079
3145.4	1102
3144.01	1112.5
3142.63	1111
3141.25	1131.5
3139.87	1125.5
3138.49	1131
3137.1	1129
3135.72	1141
3134.34	1153.5
3132.95	1140.5
3131.57	1172
3130.18	1179
3128.8	1182
3127.41	1189
3126.03	1204.5
3124.64	1206
3123.25	1212.5
3121.87	1205.5
3120.48	1217.5
3119.09	1220
3117.7	1232.5
3116.32	1236
3114.93	1252.5
3113.54	1251.5
3112.15	1268.5
3110.76	1274.5
3109.37	1256.5
3107.98	1267.5
3106.59	1263.5
3105.2	1265.5
3103.8	1305.5
3102.41	1279.5
3101.02	1297.5
3099.63	1286
3098.23	1305
3096.84	1308
3095.45	1315.5
3094.05	1322.5
3092.66	1336.5
3091.26	1334.5
3089.87	1325
3088.47	1332
3087.08	1336
3085.68	1331.5
3084.28	1340.5
3082.89	1326.5
3081.49	1356
3080.09	1364.5
3078.69	1369.5
3077.3	1369
3075.9	1363.5
3074.5	1383
3073.1	1379
3071.7	1393
3070.3	1379.5
3068.9	1389
3067.5	1380
3066.09	1400.5
3064.69	1394
3063.29	1394.5
3061.89	1416
3060.48	1418
3059.08	1421.5
3057.68	1423
3056.27	1424.5
3054.87	1430
3053.46	1434.5
3052.06	1447
3050.65	1437
3049.25	1465.5
3047.84	1450
3046.44	1463.5
3045.03	1462
3043.62	1469
3042.21	1475.5
3040.81	1468
3039.4	1472.5
3037.99	1469.5
3036.58	1468.5
3035.17	1512.5
3033.76	1494
3032.35	1521.5
3030.94	1490.5
3029.53	1493
3028.12	1531
3026.71	1506
3025.29	1528
3023.88	1537
3022.47	1541.5
3021.06	1521
3019.64	1543.5
3018.23	1536
3016.82	1549
3015.4	1539
3013.99	1544.5
3012.57	1556
3011.15	1559.5
3009.74	1567.5
3008.32	1548.5
3006.91	1576
3005.49	1563.5
3004.07	1566
3002.65	1583
3001.24	1586
2999.82	1591
2998.4	1597
2996.98	1624
2995.56	1628.5
2994.14	1637.5
2992.72	1656.5
2991.3	1624.5
2989.88	1634
2988.46	1664.5
2987.03	1644
2985.61	1661.5
2984.19	1673.5
2982.77	1692.5
2981.34	1703
2979.92	1714
2978.49	1732
2977.07	1752
2975.65	1735.5
2974.22	1733.5
2972.79	1741.5
2971.37	1762
2969.94	1763
2968.52	1784.5
2967.09	1789.5
2965.66	1806
2964.23	1795.5
2962.81	1817
2961.38	1823
2959.95	1800
2958.52	1835.5
2957.09	1855.5
2955.66	1806.5
2954.23	1837
2952.8	1840
2951.37	1853.5
2949.94	1846.5
2948.5	1844.5
2947.07	1871
2945.64	1854
2944.21	1877
2942.77	1872.5
2941.34	1881.5
2939.91	1903.5
2938.47	1920.5
2937.04	1924
2935.6	1926.5
2934.17	1943
2932.73	1956.5
2931.29	1958
2929.86	1957
2928.42	1957.5
2926.98	1986.5
2925.55	1965
2924.11	1968.5
2922.67	1966.5
2921.23	1967.5
2919.79	1983.5
2918.35	2013.5
2916.91	1995.5
2915.47	2028.5
2914.03	2015
2912.59	1985.5
2911.15	2018.5
2909.71	2042.5
2908.26	2034
2906.82	2047
2905.38	2053
2903.94	2054
2902.49	2049.5
2901.05	2055
2899.6	2059
2898.16	2061
2896.71	2086
2895.27	2086
2893.82	2067
2892.38	2082
2890.93	2076.5
2889.48	2096.5
2888.03	2072.5
2886.59	2099.5
2885.14	2089.5
2883.69	2110
2882.24	2101.5
2880.79	2108
2879.34	2111.5
2877.89	2088
2876.44	2123
2874.99	2120
2873.54	2098.5
2872.09	2117
2870.64	2107.5
2869.18	2125.5
2867.73	2097.5
2866.28	2109.5
2864.83	2149
2863.37	2137
2861.92	2143
2860.46	2121.5
2859.01	2117
2857.55	2158
2856.1	2113
2854.64	2129
2853.19	2125
2851.73	2140
2850.27	2118.5
2848.81	2133.5
2847.36	2126.5
2845.9	2105.5
2844.44	2116
2842.98	2081.5
2841.52	2073
2840.06	2048
2838.6	2047.5
2837.14	2051
2835.68	2031.5
2834.22	2042.5
2832.76	2028.5
2831.3	2019
2829.83	2022
2828.37	1994.5
2826.91	1988
2825.44	1999.5
2823.98	1968.5
2822.52	1968.5
2821.05	1976.5
2819.59	1975
2818.12	1963
2816.66	1957.5
2815.19	1947.5
2813.72	1951.5
2812.26	1950
2810.79	1955
2809.32	1953
2807.85	1962.5
2806.38	1911
2804.92	1913.5
2803.45	1941
2801.98	1941
2800.51	1931.5
2799.04	1923
2797.57	1914
2796.1	1908
2794.62	1924.5
2793.15	1898.5
2791.68	1909
2790.21	1900.5
2788.73	1908
2787.26	1905.5
2785.79	1905.5
2784.31	1927
2782.84	1926.5
2781.36	1898
2779.89	1942
2778.41	1910
2776.94	1903
2775.46	1920.5
2773.99	1936.5
2772.51	1946
2771.03	1937.5
2769.55	1928.5
2768.07	1938.5
2766.6	1911
2765.12	1942
2763.64	1921.5
2762.16	1913.5
2760.68	1924
2759.2	1918.5
2757.72	1924
2756.24	1903
2754.75	1925.5
2753.27	1913
2751.79	1931
2750.31	1918
2748.82	1916.5
2747.34	1912.5
2745.86	1932.5
2744.37	1924.5
2742.89	1918.5
2741.4	1920.5
2739.92	1919.5
2738.43	1945.5
2736.94	1915.5
2735.46	1914.5
2733.97	1925
2732.48	1906
2731	1910.5
2729.51	1890.5
2728.02	1917.5
2726.53	1927
2725.04	1889.5
2723.55	1881.5
2722.06	1901
2720.57	1887
2719.08	1899.5
2717.59	1915.5
2716.1	1916
2714.61	1896.5
2713.11	1929.5
2711.62	1910.5
2710.13	1914.5
2708.64	1896
2707.14	1901
2705.65	1886.5
2704.15	1879
2702.66	1885.5
2701.16	1868
2699.67	1876.5
2698.17	1867.5
2696.67	1879.5
2695.18	1864
2693.68	1877
2692.18	1896.5
2690.69	1873
2689.19	1862.5
2687.69	1852
2686.19	1864
2684.69	1846
2683.19	1829.5
2681.69	1827.5
2680.19	1835.5
2678.69	1837.5
2677.19	1830.5
2675.68	1826.5
2674.18	1834
2672.68	1810
2671.18	1812.5
2669.67	1803.5
2668.17	1823.5
2666.66	1818.5
2665.16	1812.5
2663.66	1843
2662.15	1815.5
2660.64	1822
2659.14	1793.5
2657.63	1812
2656.13	1805
2654.62	1801
2653.11	1800
2651.6	1770.5
2650.09	1795
2648.58	1787.5
2647.08	1791
2645.57	1764
2644.06	1773.5
2642.55	1771.5
2641.04	1777
2639.52	1759
2638.01	1756
2636.5	1750.5
2634.99	1748.5
2633.48	1737.5
2631.96	1755
2630.45	1745
2628.94	1738
2627.42	1748.5
2625.91	1752.5
2624.39	1760
2622.88	1725.5
2621.36	1728
2619.85	1733
2618.33	1727
2616.81	1707.5
2615.3	1706.5
2613.78	1737.5
2612.26	1714.5
2610.74	1710.5
2609.22	1719.5
2607.7	1713
2606.18	1708
2604.66	1698
2603.14	1696.5
2601.62	1678
2600.1	1655
2598.58	1669.5
2597.06	1661
2595.54	1677.5
2594.01	1657.5
2592.49	1674
2590.97	1667.5
2589.44	1654
2587.92	1659
2586.39	1660
2584.87	1653.5
2583.34	1668
2581.82	1645
2580.29	1641.5
2578.76	1647
2577.24	1624
2575.71	1636.5
2574.18	1631
2572.65	1643
2571.13	1639.5
2569.6	1641.5
2568.07	1630
2566.54	1637
2565.01	1633
2563.48	1618.5
2561.95	1632
2560.42	1606
2558.88	1633
2557.35	1614.5
2555.82	1605
2554.29	1608
2552.75	1590
2551.22	1586
2549.69	1569
2548.15	1584
2546.62	1582.5
2545.08	1580
2543.55	1584.5
2542.01	1572.5
2540.47	1590
2538.94	1573.5
2537.4	1565.5
2535.86	1570.5
2534.33	1565
2532.79	1538
2531.25	1562
2529.71	1525
2528.17	1549
2526.63	1523.5
2525.09	1527.5
2523.55	1503
2522.01	1515
2520.47	1530
2518.92	1501.5
2517.38	1498.5
2515.84	1501
2514.3	1489
2512.75	1478
2511.21	1485
2509.67	1478.5
2508.12	1459
2506.58	1464
2505.03	1442.5
2503.49	1465.5
2501.94	1474.5
2500.39	1463.5
2498.85	1428.5
2497.3	1433.5
2495.75	1438.5
2494.2	1429
2492.65	1430.5
2491.11	1407
2489.56	1436
2488.01	1437.5
2486.46	1408
2484.91	1406.5
2483.36	1387.5
2481.8	1391.5
2480.25	1398
2478.7	1399
2477.15	1401
2475.6	1383
2474.04	1395.5
2472.49	1359
2470.93	1368
2469.38	1376
2467.83	1345.5
2466.27	1337.5
2464.71	1341
2463.16	1349
2461.6	1329
2460.05	1312
2458.49	1317.5
2456.93	1318.5
2455.37	1322.5
2453.81	1317.5
2452.26	1303
2450.7	1291
2449.14	1293.5
2447.58	1298.5
2446.02	1284.5
2444.46	1283
2442.9	1277
2441.33	1272.5
2439.77	1272.5
2438.21	1265.5
2436.65	1262.5
2435.08	1291.5
2433.52	1272.5
2431.96	1251.5
2430.39	1277.5
2428.83	1243
2427.26	1250
2425.7	1237.5
2424.13	1237
2422.56	1212
2421	1240
2419.43	1238
2417.86	1215
2416.3	1242.5
2414.73	1225.5
2413.16	1239.5
2411.59	1235.5
2410.02	1214
2408.45	1215.5
2406.88	1213
2405.31	1212.5
2403.74	1236
2402.17	1218
2400.6	1221.5
2399.02	1194
2397.45	1211
2395.88	1204
2394.3	1206.5
2392.73	1194
2391.16	1188.5
2389.58	1181
2388.01	1183
2386.43	1189.5
2384.86	1191.5
2383.28	1201.5
2381.7	1203.5
2380.13	1185
2378.55	1190.5
2376.97	1174.5
2375.39	1181
2373.81	1174
2372.23	1180
2370.65	1165.5
2369.07	1160
2367.49	1159
2365.91	1172.5
2364.33	1149
2362.75	1156.5
2361.17	1144
2359.59	1133.5
2358.01	1149
2356.42	1143
2354.84	1145
2353.25	1135
2351.67	1139.5
2350.09	1138
2348.5	1129
2346.92	1124
2345.33	1145
2343.74	1133.5
2342.16	1144.5
2340.57	1146
2338.98	1140.5
2337.39	1139.5
2335.81	1105
2334.22	1104
2332.63	1111.5
2331.04	1098
2329.45	1094
2327.86	1101.5
2326.27	1097
2324.68	1118.5
2323.09	1107
2321.49	1106
2319.9	1082
2318.31	1080.5
2316.72	1064.5
2315.12	1069
2313.53	1059
2311.93	1045
2310.34	1058.5
2308.74	1052.5
2307.15	1059
2305.55	1055.5
2303.96	1043
2302.36	1038
2300.76	1040.5
2299.17	1024.5
2297.57	1029
2295.97	1010.5
2294.37	1003.5
2292.77	1015
2291.17	1022
2289.57	1011.5
2287.97	1024
2286.37	1016
2284.77	1020
2283.17	1013
2281.57	1003.5
2279.96	1005
2278.36	1002.5
2276.76	988.5
2275.15	996
2273.55	985.5
2271.95	989.5
2270.34	974
2268.74	994
2267.13	980
2265.52	985.5
2263.92	969.5
2262.31	965
2260.7	964
2259.1	965
2257.49	944.5
2255.88	953
2254.27	958.5
2252.66	951
2251.05	952.5
2249.44	963.5
2247.83	975
2246.22	958
2244.61	944
2243	952.5
2241.39	939.5
2239.77	927.5
2238.16	929
2236.55	935.5
2234.93	929
2233.32	921.5
2231.7	919
2230.09	921.5
2228.47	903.5
2226.86	902
2225.24	906
2223.63	895.5
2222.01	895.5
2220.39	895.5
2218.77	876
2217.16	890
2215.54	866
2213.92	891
2212.3	875.5
2210.68	889
2209.06	884
2207.44	873
2205.82	844.5
2204.19	871
2202.57	859
2200.95	845.5
2199.33	860
2197.7	849.5
2196.08	851.5
2194.46	838.5
2192.83	855.5
2191.21	851.5
2189.58	856.5
2187.96	850
2186.33	854
2184.7	856.5
2183.08	829
2181.45	828
2179.82	826
2178.19	834
2176.57	821
2174.94	822.5
2173.31	804.5
2171.68	826.5
2170.05	809
2168.42	805
2166.79	807.5
2165.16	799.5
2163.52	800
2161.89	798
2160.26	794.5
2158.63	795.5
2156.99	800
2155.36	789.5
2153.73	785.5
2152.09	775.5
2150.46	775.5
2148.82	771.5
2147.18	775
2145.55	756
2143.91	764.5
2142.27	751.5
2140.64	769
2139	759.5
2137.36	750.5
2135.72	747
2134.08	743
2132.44	732.5
2130.8	726.5
2129.16	734
2127.52	736
2125.88	725.5
2124.24	699.5
2122.6	717.5
2120.95	713
2119.31	717.5
2117.67	706.5
2116.02	708.5
2114.38	703
2112.74	691
2111.09	701
2109.45	700.5
2107.8	689.5
2106.15	689
2104.51	678
2102.86	681.5
2101.21	689
2099.56	693
2097.92	682
2096.27	687
2094.62	667
2092.97	673
2091.32	686
2089.67	680.5
2088.02	671
2086.37	672.5
2084.72	674.5
2083.06	676.5
2081.41	668
2079.76	666.5
2078.1	678
2076.45	655.5
2074.8	656
2073.14	644
2071.49	644
2069.83	651.5
2068.18	654
2066.52	650.5
2064.86	657
2063.21	645.5
2061.55	650.5
2059.89	626
2058.23	640
2056.57	627
2054.92	628.5
2053.26	633.5
2051.6	634.5
2049.94	641
2048.27	628.5
2046.61	616.5
2044.95	625.5
2043.29	622.5
2041.63	621.5
2039.97	642.5
2038.3	606.5
2036.64	607
2034.97	597.5
2033.31	604
2031.64	592
2029.98	600
2028.31	590
2026.65	590.5
2024.98	588
2023.31	596
2021.65	589
2019.98	582.5
2018.31	565.5
2016.64	578
2014.97	582
2013.3	568.5
2011.63	577.5
2009.96	575.5
2008.29	569
2006.62	562.5
2004.95	569.5
2003.28	569.5
2001.6	571
1999.93	568
1998.26	556
1996.58	551.5
1994.91	556
1993.24	563
1991.56	561
1989.89	543
1988.21	546.5
1986.53	549
1984.86	559.5
1983.18	549.5
1981.5	545
1979.82	536
1978.15	535
1976.47	530.5
1974.79	532
1973.11	529.5
1971.43	526.5
1969.75	523.5
1968.07	528.5
1966.38	532
1964.7	526
1963.02	514
1961.34	514
1959.66	511
1957.97	500.5
1956.29	513.5
1954.6	498.5
1952.92	493.5
1951.23	505.5
1949.55	510
1947.86	508
1946.18	494.5
1944.49	490
1942.8	496
1941.11	484.5
1939.43	491.5
1937.74	483.5
1936.05	480.5
1934.36	489
1932.67	472.5
1930.98	481.5
1929.29	483
1927.6	466.5
1925.91	472
1924.21	470.5
1922.52	473.5
1920.83	461.5
1919.14	456.5
1917.44	452
1915.75	459.5
1914.05	459
1912.36	467.5
1910.66	453.5
1908.97	454
1907.27	458
1905.58	457
1903.88	449
1902.18	456.5
1900.48	442
1898.79	433
1897.09	440.5
1895.39	443
1893.69	434
1891.99	442.5
1890.29	441.5
1888.59	435.5
1886.89	422
1885.18	440.5
1883.48	424
1881.78	415
1880.08	400
1878.37	412.5
1876.67	414.5
1874.96	410
1873.26	411
1871.55	420.5
1869.85	405
1868.14	416.5
1866.44	399
1864.73	412.5
1863.02	403
1861.32	391.5
1859.61	399
1857.9	399
1856.19	399.5
1854.48	400
1852.77	386.5
1851.06	406
1849.35	393
1847.64	394.5
1845.93	392.5
1844.21	387.5
1842.5	368.5
1840.79	382.5
1839.08	374.5
1837.36	369.5
1835.65	386.5
1833.93	371
1832.22	374.5
1830.5	378
1828.79	378.5
1827.07	370
1825.36	369
1823.64	361.5
1821.92	363.5
1820.2	356
1818.48	362
1816.77	353.5
1815.05	371.5
1813.33	368.5
1811.61	361.5
1809.89	368
1808.16	358
1806.44	363
1804.72	345.5
1803	360.5
1801.28	330.5
1799.55	342
1797.83	339
1796.11	352
1794.38	339
1792.66	339.5
1790.93	335
1789.21	351.5
1787.48	340.5
1785.75	332.5
1784.03	330
1782.3	330.5
1780.57	329.5
1778.84	323.5
1777.11	319.5
1775.38	326.5
1773.66	318.5
1771.93	336.5
1770.19	330
1768.46	329
1766.73	348
1765	341.5
1763.27	342.5
1761.54	345.5
1759.8	342.5
1758.07	344
1756.34	364
1754.6	364
1752.87	380.5
1751.13	372.5
1749.4	386.5
1747.66	377
1745.92	385
1744.19	368
1742.45	362.5
1740.71	353.5
1738.97	361.5
1737.23	345
1735.49	341.5
1733.75	339.5
1732.01	334
1730.27	327.5
1728.53	321
1726.79	330.5
1725.05	303.5
1723.31	317
1721.57	310.5
1719.82	308
1718.08	294.5
1716.34	302.5
1714.59	302
1712.85	299
1711.1	303.5
1709.36	309.5
1707.61	298
1705.86	284
1704.12	292
1702.37	282.5
1700.62	287
1698.87	287
1697.12	295.5
1695.37	285
1693.62	293.5
1691.87	290.5
1690.12	296.5
1688.37	295
1686.62	294
1684.87	293.5
1683.12	292
1681.36	290
1679.61	287
1677.86	289
1676.1	302
1674.35	307
1672.59	322
1670.84	329
1669.08	345
1667.33	372
1665.57	395.5
1663.81	422.5
1662.06	461
1660.3	488
1658.54	487
1656.78	493
1655.02	474.5
1653.26	447.5
1651.5	427.5
1649.74	396.5
1647.98	368.5
1646.22	347.5
1644.46	319
1642.7	317.5
1640.93	312
1639.17	287
1637.41	288
1635.64	279
1633.88	273.5
1632.11	274
1630.35	271
1628.58	267.5
1626.81	255.5
1625.05	258.5
1623.28	261
1621.51	255
1619.75	252.5
1617.98	243.5
1616.21	255.5
1614.44	247.5
1612.67	251.5
1610.9	252
1609.13	242
1607.36	250
1605.58	246.5
1603.81	242
1602.04	232.5
1600.27	240
1598.49	238
1596.72	233
1594.95	232
1593.17	238
1591.4	242.5
1589.62	242.5
1587.84	239.5
1586.07	241.5
1584.29	249.5
1582.51	228
1580.74	240
1578.96	226
1577.18	241
1575.4	231.5
1573.62	233
1571.84	236
1570.06	230.5
1568.28	224.5
1566.5	232
1564.72	235
1562.93	226.5
1561.15	231
1559.37	220.5
1557.58	228
1555.8	223.5
1554.02	229
1552.23	230
1550.45	227
1548.66	234
1546.87	236
1545.09	231
1543.3	210.5
1541.51	218.5
1539.72	211.5
1537.94	221.5
1536.15	219
1534.36	209.5
1532.57	217.5
1530.78	215
1528.99	226
1527.2	220.5
1525.4	227
1523.61	222
1521.82	222.5
1520.03	223.5
1518.23	214.5
1516.44	216.5
1514.65	220
1512.85	219
1511.06	223
1509.26	226.5
1507.46	229
1505.67	234
1503.87	236
1502.07	234
1500.28	231.5
1498.48	229.5
1496.68	233.5
1494.88	233.5
1493.08	235
1491.28	236.5
1489.48	247
1487.68	253.5
1485.88	262.5
1484.08	262
1482.27	276
1480.47	289.5
1478.67	296
1476.86	316
1475.06	325
1473.25	352.5
1471.45	387
1469.64	413
1467.84	428.5
1466.03	456.5
1464.23	477
1462.42	521
1460.61	523.5
1458.8	557
1456.99	558
1455.18	580
1453.37	599.5
1451.56	618
1449.75	633.5
1447.94	670.5
1446.13	702
1444.32	725.5
1442.51	723
1440.7	723
1438.88	683
1437.07	637.5
1435.26	586.5
1433.44	523.5
1431.63	458.5
1429.81	424
1427.99	382.5
1426.18	355
1424.36	342
1422.54	321.5
1420.73	306.5
1418.91	293
1417.09	288.5
1415.27	281
1413.45	255
1411.63	245
1409.81	241
1407.99	240.5
1406.17	248.5
1404.35	244
1402.53	244.5
1400.7	226
1398.88	226.5
1397.06	231.5
1395.23	214
1393.41	216.5
1391.58	210.5
1389.76	214.5
1387.93	225.5
1386.11	218
1384.28	222.5
1382.45	220
1380.62	217.5
1378.8	221
1376.97	215
1375.14	221.5
1373.31	234
1371.48	233.5
1369.65	227.5
1367.82	226.5
1365.99	223
1364.16	229
1362.32	233
1360.49	226
1358.66	223.5
1356.82	221.5
1354.99	216.5
1353.16	229
1351.32	222.5
1349.48	225
1347.65	228.5
1345.81	234.5
1343.98	239.5
1342.14	228.5
1340.3	237.5
1338.46	237
1336.62	238
1334.79	237.5
1332.95	258
1331.11	257.5
1329.27	263
1327.42	287
1325.58	304
1323.74	319
1321.9	343.5
1320.06	341
1318.21	373.5
1316.37	384
1314.53	400
1312.68	427
1310.84	457.5
1308.99	471.5
1307.15	504.5
1305.3	530.5
1303.45	554.5
1301.61	541.5
1299.76	538
1297.91	521
1296.06	484.5
1294.21	447
1292.36	406.5
1290.51	392
1288.66	361.5
1286.81	363
1284.96	351
1283.11	370.5
1281.26	361.5
1279.4	358.5
1277.55	375.5
1275.7	377
1273.84	383.5
1271.99	392.5
1270.13	375
1268.28	396
1266.42	390.5
1264.56	390
1262.71	375
1260.85	371
1258.99	366.5
1257.13	343
1255.27	331
1253.41	322
1251.56	304
1249.7	290
1247.83	281.5
1245.97	259.5
1244.11	261
1242.25	253
1240.39	249
1238.52	241.5
1236.66	233
1234.8	239.5
1232.93	225.5
1231.07	227
1229.2	216.5
1227.34	209
1225.47	212.5
1223.6	214
1221.74	204
1219.87	199
1218	206.5
1216.13	212
1214.26	204.5
1212.39	198
1210.53	193
1208.65	204.5
1206.78	187.5
1204.91	194.5
1203.04	191
1201.17	188
1199.3	185
1197.42	188
1195.55	189.5
1193.68	192
1191.8	184.5
1189.93	190
1188.05	192.5
1186.17	181
1184.3	178.5
1182.42	189.5
1180.54	186.5
1178.67	186.5
1176.79	195
1174.91	187.5
1173.03	181.5
1171.15	184
1169.27	194
1167.39	190
1165.51	194
1163.63	190.5
1161.75	187.5
1159.86	202.5
1157.98	186.5
1156.1	193.5
1154.21	193.5
1152.33	199
1150.44	192
1148.56	206.5
1146.67	198
1144.79	214
1142.9	207
1141.01	215.5
1139.12	210.5
1137.24	220
1135.35	233.5
1133.46	253.5
1131.57	264.5
1129.68	277.5
1127.79	285.5
1125.9	287.5
1124.01	286
1122.12	279
1120.22	279
1118.33	265
1116.44	265.5
1114.54	273.5
1112.65	257
1110.75	258
1108.86	267.5
1106.96	276.5
1105.07	289
1103.17	302.5
1101.27	308
1099.38	322
1097.48	328.5
1095.58	326.5
1093.68	347.5
1091.78	375.5
1089.88	387
1087.98	375
1086.08	405.5
1084.18	399
1082.28	417.5
1080.38	403
1078.47	393.5
1076.57	387
1074.67	385.5
1072.76	370
1070.86	370.5
1068.95	386.5
1067.05	396.5
1065.14	408.5
1063.24	397.5
1061.33	374
1059.42	358.5
1057.51	313.5
1055.6	304
1053.7	293.5
1051.79	295
1049.88	282.5
1047.97	282
1046.06	280
1044.14	280.5
1042.23	274.5
1040.32	289
1038.41	280.5
1036.5	275.5
1034.58	271
1032.67	273.5
1030.75	268.5
1028.84	268.5
1026.92	264.5
1025.01	268
1023.09	261
1021.17	263
1019.26	275
1017.34	267
1015.42	270.5
1013.5	259
1011.58	247.5
1009.66	238
1007.74	244.5
1005.82	242.5
1003.9	241.5
1001.98	241.5
1000.06	251.5
998.134	244.5
996.212	250.5
994.288	240.5
992.364	249.5
990.44	255.5
988.515	257.5
986.589	260.5
984.663	273.5
982.737	282.5
980.81	297
978.883	304.5
976.955	318
975.027	314.5
973.098	324
971.169	335
969.239	329
967.308	319
965.378	300
963.447	302.5
961.516	309
959.583	314
957.65	320.5
955.718	307
953.784	309
951.85	326.5
949.916	316
947.981	330
946.045	336.5
944.109	331
942.173	335.5
940.236	324.5
938.298	327
936.36	320.5
934.422	322
932.484	313.5
930.544	309.5
928.604	308.5
926.664	295.5
924.724	294.5
922.782	291
920.84	305.5
918.898	302.5
916.955	302
915.012	293.5
913.068	312.5
911.124	303.5
909.18	313
907.235	315.5
905.289	322.5
903.343	317
901.397	326.5
899.45	313.5
897.502	332
895.554	344.5
893.605	338
891.657	352
889.707	368
887.758	348.5
885.807	356
883.856	352.5
881.905	355.5
879.953	365
878.001	371
876.048	365.5
874.094	367.5
872.14	372
870.186	368
868.232	373.5
866.276	364.5
864.321	360
862.365	358.5
860.408	353
858.451	362.5
856.493	359
854.535	359.5
852.576	350
850.617	359
848.658	358
846.698	344
844.737	347
842.776	348.5
840.814	334.5
838.852	341.5
836.89	328.5
834.927	316.5
832.963	308.5
830.999	306.5
829.035	278.5
827.07	267
825.105	260.5
823.139	264.5
821.172	259.5
819.206	251
817.238	247
815.27	233
813.301	235
811.333	228.5
809.363	219.5
807.394	228.5
805.424	213
803.453	202.5
801.482	214.5
799.509	199.5
797.538	202.5
795.565	188
793.592	188.5
791.618	191.5
789.643	197
787.669	192
785.693	187.5
783.718	181
781.742	187
779.765	180
777.788	191
775.811	183
773.832	183.5
771.853	186.5
769.875	188.5
767.895	191.5
765.915	189
763.934	180
761.953	180.5
759.972	185.5
757.99	186
756.007	184
754.024	181
752.041	175.5
750.056	181
748.072	189.5
746.087	188
744.102	190.5
742.116	192.5
740.13	192
738.143	195.5
736.155	196.5
734.167	200
732.179	200
730.19	204.5
728.2	207
726.21	210
724.22	206.5
722.229	189.5
720.237	197.5
718.246	192.5
716.253	191.5
714.26	185
712.267	181.5
710.273	178
708.279	172
706.284	175.5
704.289	181.5
702.293	184.5
700.296	176.5
698.3	173
696.303	180.5
694.305	175
692.307	170.5
690.307	169
688.308	170
686.309	171
684.308	179
682.308	171.5
680.306	164.5
678.304	170
676.302	177.5
674.3	182.5
672.296	169.5
670.293	174.5
668.289	171
666.284	168
664.278	175
662.273	168.5
660.266	171.5
658.26	172
656.252	183.5
654.244	177
652.237	175
650.227	187.5
648.218	179
646.209	175
644.198	181.5
642.188	185
640.177	182
638.165	189.5
636.153	184
634.14	189.5
632.128	189.5
630.113	192.5
628.099	197
626.085	194.5
624.07	199
622.054	194.5
620.038	200
618.021	196.5
616.004	197
613.986	208.5
611.968	216
609.949	215.5
607.93	211
605.911	219
603.891	213.5
601.87	216.5
599.848	212
597.827	212
595.805	214
593.782	199.5
591.759	199.5
589.735	205
587.711	195
585.687	209.5
583.661	208.5
581.636	199.5
579.609	199.5
577.583	190
575.555	197
573.527	195.5
571.5	201.5
569.471	196
567.441	203
565.412	201
563.382	197
561.351	206.5
559.32	203.5
557.289	200.5
555.257	216.5
553.223	202.5
551.19	206.5
549.157	227
547.122	240.5
545.088	228.5
543.053	257.5
541.017	254
538.981	278
536.943	311
534.907	348
532.869	425.5
530.831	534.5
528.792	758
526.752	1092
524.713	1507.5
522.673	1787
520.632	1740.5
518.591	1416
516.549	1041.5
514.507	757.5
512.464	548
510.42	421.5
508.377	347.5
506.332	310.5
504.288	292.5
502.242	275
500.196	283
498.15	271.5
496.104	279.5
494.056	263
492.008	265.5
489.96	269.5
487.911	264
485.862	253
483.812	249.5
481.761	252.5
479.71	252.5
477.659	259
475.607	248.5
473.555	246.5
471.502	252
469.448	255
467.395	257.5
465.34	252
463.285	249.5
461.23	255.5
459.174	245.5
457.118	251.5
455.061	254
453.003	259
450.945	256.5
448.887	262.5
446.828	271
444.768	273.5
442.708	270.5
440.647	262.5
438.587	267.5
436.525	269
434.463	259.5
432.4	276
430.337	279.5
428.274	271.5
426.21	272.5
424.145	284.5
422.079	287
420.014	280.5
417.948	276.5
415.882	292.5
413.814	282
411.746	283.5
409.679	281
407.609	286.5
405.54	306.5
403.47	296
401.401	296
399.329	289.5
397.258	298.5
395.187	294.5
393.114	296.5
391.041	274
388.968	297
386.895	296
384.82	294.5
382.745	308.5
380.67	299
378.594	294
376.517	295.5
374.44	304.5
372.363	310.5
370.286	306
368.207	318
366.128	312
364.049	305.5
361.969	313
359.888	311
357.807	317.5
355.725	329.5
353.643	322
351.561	323.5
349.477	316
347.394	327.5
345.31	317.5
343.226	323
341.141	329
339.055	325.5
336.968	339.5
334.882	328.5
332.795	337
330.707	338.5
328.618	335.5
326.53	348.5
324.44	354.5
322.351	366.5
320.26	368
318.17	380
316.078	375.5
313.987	395
311.895	397.5
309.802	414
307.708	417
305.614	431.5
303.52	428.5
301.425	423.5
299.329	428
297.233	412
295.137	408
293.039	424
290.942	410
288.844	411.5
286.745	419
284.647	415
282.546	426
280.446	432.5
278.346	436.5
276.245	438.5
274.143	433
272.041	435.5
269.939	463
267.835	447.5
265.731	457
263.627	464.5
261.522	459.5
259.417	477
257.311	485
255.204	473
253.098	489
250.99	499
248.882	497
246.774	498
244.664	516.5
242.555	510.5
240.445	521
238.334	521.5
236.223	523.5
234.112	545
232	548
229.888	543
227.775	549
225.661	559
223.546	546.5
221.431	575
219.316	565
217.201	581.5
215.084	572.5
212.967	569.5
210.85	584
208.732	590
206.614	590
204.495	596
202.375	586.5
200.256	594
198.135	600
196.014	579.5
193.893	577
191.771	584.5
189.648	567.5
187.525	588.5
185.401	585
183.277	586.5
181.152	585.5
179.027	591.5
176.901	596
174.775	597
172.648	606
170.521	615.5
168.393	612.5
166.265	620
164.136	633
162.007	634.5
159.876	650
157.746	663.5
155.615	686
153.483	692
151.351	719.5
149.219	726.5
147.086	746
144.952	761
142.818	766.5
140.684	795.5
138.548	832.5
136.413	833
134.276	892.5
132.139	906.5
130.002	941
127.864	962.5
125.725	992
123.587	1031
121.447	1050
119.307	1085.5
117.166	1124.5
115.026	1182.5
112.885	1233
110.743	1246
108.6	1278
106.456	1319.5
104.313	1291.5
102.169	1272
100.023	1215
97.8789	1105.5
95.7328	1015.5
93.5869	889
91.4392	762
89.2919	627
87.1447	487
84.9959	382
