3528.51	0
3527.23	3
3525.95	-32
3524.67	0
3523.39	26.5
3522.1	-32.5
3520.82	-19.5
3519.54	-12
3518.26	8
3516.97	-6.5
3515.69	13
3514.4	6
3513.12	-19.5
3511.84	17.5
3510.55	-5.5
3509.26	3
3507.98	-16.5
3506.69	4
3505.41	-8
3504.12	-24
3502.83	-17.5
3501.54	2
3500.26	-2
3498.97	-13
3497.68	4
3496.39	12
3495.1	15
3493.81	-5
3492.52	4
3491.23	-20
3489.94	-18
3488.65	18.5
3487.36	-14.5
3486.07	-12
3484.78	-12
3483.49	-15
3482.19	1
3480.9	-25
3479.61	0.5
3478.31	-18
3477.02	-13
3475.73	-10
3474.43	-22
3473.14	-20
3471.84	-4.5
3470.54	9.5
3469.25	-22
3467.95	-18.5
3466.66	0.5
3465.36	-20
3464.06	7
3462.76	-2
3461.46	23
3460.17	-6
3458.87	7
3457.57	2
3456.27	-5
3454.97	-20
3453.67	-0.5
3452.37	9
3451.07	-15
3449.77	5.5
3448.47	-12
3447.16	1.5
3445.86	-5
3444.56	-13.5
3443.26	-1
3441.95	-8
3440.65	-11
3439.35	-1.5
3438.04	-21
3436.74	19
3435.43	-6
3434.13	-3
3432.82	10
3431.52	-11
3430.21	15
3428.9	17
3427.6	1
3426.29	-7
3424.98	12.5
3423.67	1.5
3422.36	-29
3421.06	-1
3419.75	-12.5
3418.44	15.5
3417.13	-1
3415.82	-23
3414.51	-0.5
3413.2	-35
3411.88	7
3410.57	10
3409.26	-5.5
3407.95	-11
3406.64	-0.5
3405.32	-23.5
3404.01	-13.5
3402.7	18
3401.38	13.5
3400.07	-8.5
3398.75	-6
3397.44	-5.5
3396.12	2
3394.81	2.5
3393.49	-7
3392.18	-27
3390.86	-7.5
3389.54	-13
3388.23	-5
3386.91	-2
3385.59	-4
3384.27	-12.5
3382.95	-6
3381.63	-18
3380.31	-2
3378.99	-6
3377.67	-13
3376.35	-23
3375.03	-4
3373.71	8.5
3372.39	-23
3371.07	-14
3369.75	11
3368.42	0
3367.1	4
3365.78	17
3364.45	-3
3363.13	7
3361.81	6.5
3360.48	13
3359.16	-3
3357.83	-25
3356.51	18
3355.18	-3
3353.85	-6
3352.53	-19.5
3351.2	-33.5
3349.87	-4
3348.54	3
3347.22	10.5
3345.89	1.5
3344.56	0.5
3343.23	32
3341.9	-10
3340.57	1.5
3339.24	19
3337.91	-11
3336.58	5.5
3335.25	8
3333.92	-16
3332.58	-6.5
3331.25	15
3329.92	-29
3328.59	-11
3327.25	5
3325.92	-1
3324.58	13
3323.25	-1
3321.92	-21.5
3320.58	-10
3319.25	-9
3317.91	2.5
3316.57	-22
3315.24	-11.5
3313.9	-11
3312.56	-16
3311.23	-7
3309.89	-3
3308.55	-6.5
3307.21	0
3305.87	0
3304.53	-21
3303.19	-9
3301.85	6
3300.51	-7
3299.17	15
3297.83	-7
3296.49	2
3295.15	-3.5
3293.81	31
3292.46	4
3291.12	-25
3289.78	-5
3288.43	6.5
3287.09	-4
3285.75	-6.5
3284.4	-7
3283.06	5
3281.71	-13
3280.37	-21.5
3279.02	3
3277.67	-10
3276.33	1
3274.98	10
3273.63	9
3272.28	-8
3270.94	3
3269.59	7
3268.24	-33
3266.89	-7
3265.54	-16
3264.19	10.5
3262.84	-0.5
3261.49	16.5
3260.14	-8
3258.79	30
3257.44	-6
3256.08	-15
3254.73	-8.5
3253.38	-2
3252.03	-3
3250.67	1
3249.32	-18
3247.96	-5.5
3246.61	-0.5
3245.26	3
3243.9	-3
3242.54	-19
3241.19	-12
3239.83	4
3238.48	-7
3237.12	37
3235.76	5
3234.41	2
3233.05	1.5
3231.69	-35
3230.33	-18
3228.97	-3.5
3227.61	3.5
3226.25	-4.5
3224.89	-1
3223.53	9
3222.17	0
3220.81	-19.5
3219.45	-1
3218.09	12
3216.72	8
3215.36	8
3214	10.5
3212.63	8
3211.27	-2
3209.91	2.5
3208.54	18.5
3207.18	8
3205.81	5
3204.45	28.5
3203.08	11.5
3201.71	9
3200.35	16
3198.98	17.5
3197.61	-13
3196.25	2
3194.88	7
3193.51	5
3192.14	2
3190.77	-16.5
3189.4	2.5
3188.03	12
3186.66	8
3185.29	15
3183.92	2.5
3182.55	24
3181.18	-2
3179.81	25.5
3178.44	10
3177.06	-9.5
3175.69	4.5
3174.32	9
3172.94	-3.5
3171.57	31
3170.2	7.5
3168.82	13
3167.45	12
3166.07	-7
3164.69	9
3163.32	-14
3161.94	-2
3160.56	19
3159.19	-12.5
3157.81	-10
3156.43	18.5
3155.05	1
3153.67	40
3152.3	-14
3150.92	7
3149.54	27
3148.16	13.5
3146.78	5.5
3145.4	-25
3144.01	-1
3142.63	-11.5
3141.25	1
3139.87	26
3138.49	4
3137.1	14
3135.72	1
3134.34	7.5
3132.95	-5
3131.57	14.5
3130.18	11
3128.8	-2
3127.41	4.5
3126.03	9
3124.64	13
3123.25	14.5
3121.87	9.5
3120.48	-2.5
3119.09	-9
3117.7	-4
3116.32	5
3114.93	-14
3113.54	10.5
3112.15	11.5
3110.76	-1
3109.37	5.5
3107.98	11
3106.59	2.5
3105.2	7
3103.8	24
3102.41	16
3101.02	23
3099.63	-12
3098.23	18
3096.84	-5.5
3095.45	8
3094.05	19
3092.66	14
3091.26	10.5
3089.87	-10
3088.47	9.5
3087.08	21
3085.68	31
3084.28	10
3082.89	29
3081.49	36
3080.09	-3
3078.69	32
3077.3	44
3075.9	21
3074.5	16
3073.1	15
3071.7	26
3070.3	28.5
3068.9	59
3067.5	33
3066.09	10.5
3064.69	33
3063.29	34
3061.89	49
3060.48	28
3059.08	30.5
3057.68	39.5
3056.27	37
3054.87	34
3053.46	15.5
3052.06	36
3050.65	39
3049.25	30
3047.84	27.5
3046.44	28
3045.03	41
3043.62	18
3042.21	51
3040.81	49
3039.4	44
3037.99	30
3036.58	44.5
3035.17	49
3033.76	38
3032.35	57
3030.94	66
3029.53	66.5
3028.12	49.5
3026.71	73.5
3025.29	61.5
3023.88	82
3022.47	51
3021.06	69
3019.64	54
3018.23	71
3016.82	87.5
3015.4	101
3013.99	88.5
3012.57	95
3011.15	120.5
3009.74	96
3008.32	105
3006.91	122
3005.49	107
3004.07	131
3002.65	104
3001.24	133.5
2999.82	128
2998.4	129
2996.98	128
2995.56	139
2994.14	157
2992.72	128
2991.3	164
2989.88	138
2988.46	152
2987.03	161.5
2985.61	184
2984.19	145
2982.77	180
2981.34	208
2979.92	191.5
2978.49	230
2977.07	243
2975.65	212
2974.22	235.5
2972.79	267.5
2971.37	281
2969.94	301
2968.52	307
2967.09	296.5
2965.66	308.5
2964.23	316
2962.81	363.5
2961.38	344
2959.95	362
2958.52	424
2957.09	425
2955.66	424
2954.23	442
2952.8	439
2951.37	471.5
2949.94	476.5
2948.5	505
2947.07	531
2945.64	555.5
2944.21	573
2942.77	576
2941.34	620
2939.91	645
2938.47	657
2937.04	696
2935.6	696
2934.17	775
2932.73	761
2931.29	769.5
2929.86	782.5
2928.42	858
2926.98	840
2925.55	828
2924.11	854.5
2922.67	896
2921.23	922
2919.79	902
2918.35	934.5
2916.91	982
2915.47	997
2914.03	955.5
2912.59	973.5
2911.15	1029
2909.71	1023
2908.26	1075.5
2906.82	1059
2905.38	1120
2903.94	1085
2902.49	1183.5
2901.05	1169
2899.6	1192
2898.16	1225
2896.71	1259
2895.27	1261
2893.82	1233
2892.38	1313.5
2890.93	1319
2889.48	1352
2888.03	1367.5
2886.59	1430
2885.14	1490
2883.69	1430.5
2882.24	1459.5
2880.79	1484
2879.34	1463
2877.89	1469.5
2876.44	1506
2874.99	1438.5
2873.54	1423
2872.09	1397.5
2870.64	1416
2869.18	1353
2867.73	1353.5
2866.28	1368.5
2864.83	1313.5
2863.37	1353
2861.92	1330.5
2860.46	1259.5
2859.01	1308.5
2857.55	1347
2856.1	1357
2854.64	1330.5
2853.19	1318
2851.73	1337
2850.27	1332
2848.81	1296
2847.36	1264
2845.9	1238.5
2844.44	1181.5
2842.98	1107.5
2841.52	1100.5
2840.06	1032.5
2838.6	912
2837.14	860
2835.68	802.5
2834.22	737.5
2832.76	633
2831.3	614.5
2829.83	570
2828.37	517
2826.91	487
2825.44	443
2823.98	423
2822.52	401
2821.05	372
2819.59	365
2818.12	312.5
2816.66	272
2815.19	266
2813.72	246
2812.26	243.5
2810.79	235.5
2809.32	224
2807.85	218
2806.38	200.5
2804.92	199
2803.45	175
2801.98	180
2800.51	197
2799.04	177.5
2797.57	197.5
2796.1	157.5
2794.62	143
2793.15	174.5
2791.68	129
2790.21	146
2788.73	119
2787.26	129
2785.79	133.5
2784.31	100
2782.84	139.5
2781.36	122
2779.89	94.5
2778.41	118
2776.94	120
2775.46	117.5
2773.99	104
2772.51	105
2771.03	114
2769.55	106.5
2768.07	89.5
2766.6	122
2765.12	102
2763.64	109
2762.16	104
2760.68	113
2759.2	121
2757.72	113.5
2756.24	114
2754.75	114
2753.27	108
2751.79	117.5
2750.31	136.5
2748.82	104.5
2747.34	115
2745.86	126
2744.37	134
2742.89	116
2741.4	138
2739.92	141.5
2738.43	154
2736.94	153.5
2735.46	181
2733.97	152
2732.48	195
2731	162
2729.51	168.5
2728.02	232
2726.53	201
2725.04	167
2723.55	200
2722.06	185
2720.57	204
2719.08	194
2717.59	184
2716.1	167
2714.61	187
2713.11	208
2711.62	185
2710.13	176
2708.64	173.5
2707.14	171
2705.65	151.5
2704.15	147
2702.66	154.5
2701.16	150
2699.67	139
2698.17	158.5
2696.67	130
2695.18	129
2693.68	145
2692.18	159
2690.69	136.5
2689.19	137
2687.69	132.5
2686.19	110
2684.69	131.5
2683.19	111.5
2681.69	107
2680.19	118
2678.69	105
2677.19	103
2675.68	127
2674.18	85.5
2672.68	107
2671.18	99
2669.67	113
2668.17	105
2666.66	106
2665.16	106.5
2663.66	112
2662.15	127.5
2660.64	114
2659.14	119
2657.63	123.5
2656.13	114
2654.62	113
2653.11	101.5
2651.6	88
2650.09	95
2648.58	101
2647.08	95
2645.57	97
2644.06	100
2642.55	61
2641.04	79
2639.52	104.5
2638.01	77
2636.5	82
2634.99	82
2633.48	87.5
2631.96	77.5
2630.45	88.5
2628.94	88.5
2627.42	88.5
2625.91	79
2624.39	80
2622.88	68
2621.36	117.5
2619.85	106.5
2618.33	85.5
2616.81	82.5
2615.3	91
2613.78	75.5
2612.26	92
2610.74	86
2609.22	82.5
2607.7	94
2606.18	72
2604.66	80.5
2603.14	68
2601.62	96
2600.1	83.5
2598.58	78
2597.06	65.5
2595.54	76
2594.01	78
2592.49	104
2590.97	67
2589.44	84
2587.92	78
2586.39	100.5
2584.87	74
2583.34	66
2581.82	68
2580.29	77
2578.76	61
2577.24	61
2575.71	71.5
2574.18	68
2572.65	55
2571.13	46.5
2569.6	79.5
2568.07	60
2566.54	67
2565.01	74.5
2563.48	65.5
2561.95	55
2560.42	56.5
2558.88	49
2557.35	53
2555.82	61.5
2554.29	53
2552.75	31
2551.22	78.5
2549.69	67.5
2548.15	34
2546.62	45.5
2545.08	63
2543.55	64.5
2542.01	68.5
2540.47	65
2538.94	56
2537.4	51
2535.86	84
2534.33	52
2532.79	40
2531.25	49.5
2529.71	35.5
2528.17	63
2526.63	44.5
2525.09	50
2523.55	36.5
2522.01	58
2520.47	33
2518.92	59
2517.38	19
2515.84	68
2514.3	41
2512.75	57
2511.21	57
2509.67	46.5
2508.12	48
2506.58	58
2505.03	65
2503.49	59.5
2501.94	41
2500.39	30
2498.85	31
2497.3	42
2495.75	41.5
2494.2	50
2492.65	53.5
2491.11	66
2489.56	35
2488.01	32
2486.46	27
2484.91	56
2483.36	15.5
2481.8	54
2480.25	58
2478.7	48
2477.15	43
2475.6	46.5
2474.04	22.5
2472.49	33
2470.93	32
2469.38	36.5
2467.83	51
2466.27	58.5
2464.71	32
2463.16	75
2461.6	46.5
2460.05	29
2458.49	63
2456.93	39
2455.37	43
2453.81	46
2452.26	42
2450.7	66.5
2449.14	47.5
2447.58	26
2446.02	39
2444.46	48.5
2442.9	62.5
2441.33	50.5
2439.77	74.5
2438.21	42
2436.65	68
2435.08	55
2433.52	51
2431.96	49
2430.39	74.5
2428.83	54
2427.26	1
2425.7	66.5
2424.13	54.5
2422.56	59
2421	64
2419.43	18
2417.86	78.5
2416.3	46
2414.73	58
2413.16	54.5
2411.59	71
2410.02	92
2408.45	25
2406.88	55.5
2405.31	46
2403.74	39.5
2402.17	60
2400.6	30.5
2399.02	41
2397.45	46
2395.88	32
2394.3	32
2392.73	11.5
2391.16	65.5
2389.58	31
2388.01	53
2386.43	57.5
2384.86	67.5
2383.28	51
2381.7	66
2380.13	49
2378.55	45
2376.97	52
2375.39	56
2373.81	34
2372.23	49
2370.65	78
2369.07	32
2367.49	33.5
2365.91	92.5
2364.33	55
2362.75	71.5
2361.17	60
2359.59	48.5
2358.01	41
2356.42	46
2354.84	29
2353.25	57.5
2351.67	59
2350.09	53.5
2348.5	48
2346.92	58
2345.33	46.5
2343.74	41
2342.16	69
2340.57	54.5
2338.98	39
2337.39	75.5
2335.81	53
2334.22	63
2332.63	69
2331.04	55.5
2329.45	66
2327.86	82
2326.27	63.5
2324.68	51.5
2323.09	54
2321.49	53
2319.9	24.5
2318.31	58
2316.72	35
2315.12	71
2313.53	64
2311.93	56
2310.34	64.5
2308.74	59.5
2307.15	53
2305.55	22.5
2303.96	66
2302.36	67.5
2300.76	68
2299.17	72
2297.57	41
2295.97	47
2294.37	50
2292.77	47.5
2291.17	91
2289.57	62
2287.97	57
2286.37	68.5
2284.77	65
2283.17	25
2281.57	82
2279.96	74
2278.36	55
2276.76	46
2275.15	61
2273.55	68
2271.95	39
2270.34	33
2268.74	63
2267.13	65.5
2265.52	86
2263.92	78
2262.31	56
2260.7	58
2259.1	65.5
2257.49	62
2255.88	67
2254.27	90.5
2252.66	37
2251.05	54.5
2249.44	67.5
2247.83	43.5
2246.22	55.5
2244.61	71
2243	68.5
2241.39	83.5
2239.77	75
2238.16	58.5
2236.55	52
2234.93	77
2233.32	72
2231.7	51
2230.09	89.5
2228.47	66
2226.86	77
2225.24	62
2223.63	40
2222.01	54
2220.39	69
2218.77	77
2217.16	74.5
2215.54	82.5
2213.92	72
2212.3	88
2210.68	75
2209.06	71.5
2207.44	67.5
2205.82	73
2204.19	58
2202.57	67
2200.95	75
2199.33	84
2197.7	96
2196.08	95.5
2194.46	84
2192.83	106.5
2191.21	83
2189.58	97.5
2187.96	105.5
2186.33	99
2184.7	91
2183.08	92
2181.45	92.5
2179.82	83.5
2178.19	85
2176.57	94.5
2174.94	59
2173.31	74.5
2171.68	93
2170.05	55.5
2168.42	88
2166.79	65
2165.16	93.5
2163.52	68
2161.89	52
2160.26	32
2158.63	69.5
2156.99	64.5
2155.36	51
2153.73	91
2152.09	75
2150.46	65.5
2148.82	74.5
2147.18	89
2145.55	89
2143.91	62.5
2142.27	60
2140.64	58
2139	63
2137.36	88.5
2135.72	48
2134.08	77
2132.44	69
2130.8	76.5
2129.16	62
2127.52	65
2125.88	54.5
2124.24	80
2122.6	74
2120.95	63
2119.31	55.5
2117.67	100
2116.02	52.5
2114.38	76
2112.74	81.5
2111.09	77.5
2109.45	78.5
2107.8	97
2106.15	66
2104.51	72
2102.86	64.5
2101.21	66.5
2099.56	62
2097.92	55
2096.27	85.5
2094.62	68
2092.97	73.5
2091.32	59
2089.67	79
2088.02	68
2086.37	86
2084.72	67.5
2083.06	67
2081.41	50
2079.76	71
2078.1	53.5
2076.45	62
2074.8	33
2073.14	57
2071.49	67
2069.83	81
2068.18	69.5
2066.52	56
2064.86	88
2063.21	65.5
2061.55	89.5
2059.89	58
2058.23	58
2056.57	99
2054.92	51.5
2053.26	77
2051.6	73
2049.94	67.5
2048.27	67.5
2046.61	67.5
2044.95	64
2043.29	71.5
2041.63	75
2039.97	60
2038.3	66
2036.64	72.5
2034.97	81
2033.31	64
2031.64	69
2029.98	75
2028.31	53
2026.65	72
2024.98	56
2023.31	70
2021.65	68.5
2019.98	108
2018.31	73
2016.64	69
2014.97	52
2013.3	70
2011.63	79
2009.96	40
2008.29	63
2006.62	63.5
2004.95	87
2003.28	44
2001.6	74
1999.93	86
1998.26	77
1996.58	91
1994.91	90
1993.24	90
1991.56	69
1989.89	95
1988.21	81
1986.53	80.5
1984.86	79
1983.18	66.5
1981.5	86
1979.82	90
1978.15	96
1976.47	74.5
1974.79	87
1973.11	74.5
1971.43	81
1969.75	81.5
1968.07	73
1966.38	55
1964.7	90
1963.02	51
1961.34	83
1959.66	63
1957.97	76
1956.29	97
1954.6	70
1952.92	78.5
1951.23	91
1949.55	86
1947.86	80
1946.18	93
1944.49	101.5
1942.8	76
1941.11	95
1939.43	96
1937.74	69
1936.05	88
1934.36	63
1932.67	74.5
1930.98	111.5
1929.29	90
1927.6	78.5
1925.91	81
1924.21	90.5
1922.52	84
1920.83	71
1919.14	92
1917.44	89
1915.75	95
1914.05	83.5
1912.36	96.5
1910.66	88
1908.97	73.5
1907.27	69.5
1905.58	72
1903.88	74
1902.18	75.5
1900.48	61
1898.79	109
1897.09	96
1895.39	83
1893.69	121
1891.99	88.5
1890.29	95
1888.59	94
1886.89	80
1885.18	84.5
1883.48	72.5
1881.78	92
1880.08	107
1878.37	85.5
1876.67	103
1874.96	100
1873.26	88
1871.55	109.5
1869.85	89
1868.14	99
1866.44	94.5
1864.73	104
1863.02	98
1861.32	107
1859.61	85
1857.9	84
1856.19	81
1854.48	83.5
1852.77	84
1851.06	97.5
1849.35	85.5
1847.64	104
1845.93	107
1844.21	76.5
1842.5	80
1840.79	99
1839.08	126
1837.36	100
1835.65	116
1833.93	119.5
1832.22	93
1830.5	67
1828.79	79
1827.07	117
1825.36	108
1823.64	118
1821.92	113
1820.2	93
1818.48	115.5
1816.77	110
1815.05	72
1813.33	109
1811.61	118
1809.89	89.5
1808.16	111
1806.44	113
1804.72	88
1803	97
1801.28	110
1799.55	120
1797.83	118.5
1796.11	97
1794.38	106.5
1792.66	115
1790.93	114
1789.21	98
1787.48	122
1785.75	109
1784.03	139
1782.3	123
1780.57	115
1778.84	129.5
1777.11	120
1775.38	127
1773.66	131.5
1771.93	133
1770.19	132
1768.46	154.5
1766.73	167
1765	166.5
1763.27	175
1761.54	176
1759.8	230.5
1758.07	240.5
1756.34	269
1754.6	288.5
1752.87	332
1751.13	368.5
1749.4	393
1747.66	415.5
1745.92	441
1744.19	476
1742.45	445
1740.71	414
1738.97	375
1737.23	320
1735.49	323.5
1733.75	308
1732.01	308
1730.27	318.5
1728.53	257
1726.79	249.5
1725.05	203.5
1723.31	179
1721.57	170
1719.82	168
1718.08	177
1716.34	139
1714.59	169.5
1712.85	169
1711.1	168.5
1709.36	157
1707.61	136.5
1705.86	176
1704.12	191
1702.37	171
1700.62	167
1698.87	176
1697.12	158.5
1695.37	169
1693.62	156.5
1691.87	150
1690.12	175
1688.37	184.5
1686.62	166
1684.87	208
1683.12	193
1681.36	233
1679.61	197
1677.86	263
1676.1	284
1674.35	360
1672.59	388
1670.84	447
1669.08	422
1667.33	463.5
1665.57	502.5
1663.81	498
1662.06	592
1660.3	687
1658.54	735
1656.78	766
1655.02	751
1653.26	718
1651.5	676
1649.74	553
1647.98	465.5
1646.22	409
1644.46	366
1642.7	329
1640.93	341
1639.17	256
1637.41	270
1635.64	231
1633.88	228
1632.11	248
1630.35	239.5
1628.58	211
1626.81	191.5
1625.05	203
1623.28	182
1621.51	187
1619.75	190
1617.98	206
1616.21	206
1614.44	188.5
1612.67	187
1610.9	192.5
1609.13	197
1607.36	186.5
1605.58	168
1603.81	204
1602.04	212
1600.27	167
1598.49	201
1596.72	192
1594.95	185
1593.17	197
1591.4	165
1589.62	189
1587.84	202
1586.07	194.5
1584.29	201.5
1582.51	192
1580.74	224.5
1578.96	210.5
1577.18	211
1575.4	212
1573.62	202
1571.84	216
1570.06	203
1568.28	212
1566.5	252.5
1564.72	203
1562.93	205
1561.15	231.5
1559.37	250
1557.58	252.5
1555.8	223
1554.02	239
1552.23	227
1550.45	259.5
1548.66	249
1546.87	232.5
1545.09	254
1543.3	223.5
1541.51	247
1539.72	274.5
1537.94	235.5
1536.15	259.5
1534.36	280.5
1532.57	251
1530.78	289.5
1528.99	264
1527.2	277.5
1525.4	292
1523.61	287
1521.82	304
1520.03	288
1518.23	308
1516.44	313
1514.65	323
1512.85	309
1511.06	319
1509.26	344
1507.46	355
1505.67	364.5
1503.87	351
1502.07	404
1500.28	426
1498.48	451.5
1496.68	450
1494.88	467
1493.08	506
1491.28	541
1489.48	611.5
1487.68	655.5
1485.88	697.5
1484.08	786
1482.27	893.5
1480.47	962.5
1478.67	1145.5
1476.86	1217
1475.06	1411.5
1473.25	1597.5
1471.45	1744.5
1469.64	2005.5
1467.84	2157
1466.03	2365
1464.23	2481.5
1462.42	2570
1460.61	2716.5
1458.8	2822.5
1456.99	2862
1455.18	2903.5
1453.37	3038.5
1451.56	3141.5
1449.75	3309
1447.94	3417
1446.13	3596
1444.32	3807.5
1442.51	3930
1440.7	3875
1438.88	3624.5
1437.07	3238
1435.26	2757.5
1433.44	2345
1431.63	1992
1429.81	1656
1427.99	1439.5
1426.18	1288.5
1424.36	1128
1422.54	1087
1420.73	1044
1418.91	917
1417.09	872
1415.27	830.5
1413.45	731
1411.63	686.5
1409.81	677.5
1407.99	610
1406.17	552
1404.35	549.5
1402.53	539
1400.7	501
1398.88	509
1397.06	451.5
1395.23	455
1393.41	488.5
1391.58	462.5
1389.76	455
1387.93	453.5
1386.11	464.5
1384.28	494.5
1382.45	496.5
1380.62	504.5
1378.8	522
1376.97	539
1375.14	616
1373.31	639.5
1371.48	645
1369.65	655
1367.82	651
1365.99	624
1364.16	612
1362.32	563.5
1360.49	555
1358.66	553
1356.82	581
1354.99	523.5
1353.16	528.5
1351.32	564
1349.48	559
1347.65	603
1345.81	614.5
1343.98	653
1342.14	611
1340.3	633
1338.46	651.5
1336.62	649
1334.79	693.5
1332.95	696.5
1331.11	673
1329.27	777.5
1327.42	849
1325.58	901
1323.74	956.5
1321.9	982
1320.06	1112.5
1318.21	1219.5
1316.37	1320
1314.53	1491.5
1312.68	1596
1310.84	1718
1308.99	1967
1307.15	2154
1305.3	2477.5
1303.45	2749.5
1301.61	3158.5
1299.76	3540
1297.91	3658.5
1296.06	3439
1294.21	2844
1292.36	2190
1290.51	1871
1288.66	1662
1286.81	1452
1284.96	1381
1283.11	1284
1281.26	1227
1279.4	1185
1277.55	1128
1275.7	1125
1273.84	1142.5
1271.99	1126.5
1270.13	1111.5
1268.28	1104
1266.42	1107
1264.56	1050
1262.71	1051
1260.85	1025
1258.99	1009
1257.13	971.5
1255.27	973
1253.41	958
1251.56	938.5
1249.7	963.5
1247.83	896
1245.97	849.5
1244.11	781
1242.25	752
1240.39	725
1238.52	701
1236.66	660
1234.8	626.5
1232.93	640.5
1231.07	619.5
1229.2	572.5
1227.34	580
1225.47	525
1223.6	567.5
1221.74	555
1219.87	546.5
1218	569
1216.13	541.5
1214.26	540
1212.39	514
1210.53	548
1208.65	509.5
1206.78	540
1204.91	547
1203.04	556.5
1201.17	570.5
1199.3	578
1197.42	561
1195.55	565.5
1193.68	589
1191.8	564.5
1189.93	540
1188.05	577
1186.17	639
1184.3	682.5
1182.42	685
1180.54	720
1178.67	710
1176.79	698
1174.91	712.5
1173.03	626.5
1171.15	656.5
1169.27	644.5
1167.39	632.5
1165.51	645.5
1163.63	655
1161.75	662
1159.86	675.5
1157.98	662
1156.1	673.5
1154.21	685.5
1152.33	633
1150.44	614
1148.56	634.5
1146.67	679
1144.79	708
1142.9	737.5
1141.01	787
1139.12	947.5
1137.24	1163
1135.35	1424.5
1133.46	1772
1131.57	2094
1129.68	2106
1127.79	1884.5
1125.9	1655
1124.01	1453
1122.12	1300.5
1120.22	1193
1118.33	1145
1116.44	1164
1114.54	1092.5
1112.65	1152
1110.75	1160
1108.86	1316
1106.96	1357
1105.07	1424
1103.17	1511
1101.27	1548.5
1099.38	1514
1097.48	1510
1095.58	1468
1093.68	1457
1091.78	1500.5
1089.88	1519
1087.98	1559.5
1086.08	1529
1084.18	1584
1082.28	1578
1080.38	1582.5
1078.47	1578
1076.57	1571
1074.67	1619
1072.76	1665
1070.86	1769
1068.95	1987
1067.05	2292
1065.14	2695
1063.24	2868
1061.33	2737
1059.42	2369.5
1057.51	1948
1055.6	1555
1053.7	1391
1051.79	1269
1049.88	1199.5
1047.97	1160
1046.06	1076
1044.14	1069.5
1042.23	1010
1040.32	1033.5
1038.41	993
1036.5	969
1034.58	1000
1032.67	983
1030.75	968.5
1028.84	973
1026.92	947.5
1025.01	913
1023.09	926
1021.17	922
1019.26	934.5
1017.34	925
1015.42	909
1013.5	852
1011.58	861
1009.66	835
1007.74	779.5
1005.82	822
1003.9	778
1001.98	787
1000.06	736
998.134	763
996.212	783
994.288	742.5
992.364	749
990.44	712.5
988.515	763
986.589	765
984.663	731
982.737	726
980.81	722
978.883	766.5
976.955	800
975.027	803
973.098	817
971.169	846.5
969.239	818
967.308	800.5
965.378	854
963.447	862.5
961.516	868
959.583	855
957.65	832.5
955.718	830
953.784	839
951.85	814
949.916	796
947.981	769.5
946.045	774.5
944.109	802
942.173	804
940.236	849
938.298	812
936.36	839
934.422	854
932.484	869.5
930.544	913
928.604	891.5
926.664	983
924.724	1013.5
922.782	1041
920.84	1105.5
918.898	1044.5
916.955	1063
915.012	1032
913.068	1074
911.124	1090.5
909.18	1122
907.235	1074
905.289	1062.5
903.343	1089
901.397	1143.5
899.45	1184.5
897.502	1281
895.554	1400.5
893.605	1428
891.657	1567
889.707	1546
887.758	1456
885.807	1395.5
883.856	1329.5
881.905	1274
879.953	1303
878.001	1305
876.048	1310.5
874.094	1258
872.14	1331
870.186	1259
868.232	1201
866.276	1253
864.321	1206
862.365	1120
860.408	1144
858.451	1159.5
856.493	1152
854.535	1144.5
852.576	1132
850.617	1120
848.658	1130.5
846.698	1145
844.737	1076
842.776	1118.5
840.814	1021
838.852	1004.5
836.89	1017
834.927	1010.5
832.963	936
830.999	881.5
829.035	875
827.07	894.5
825.105	877.5
823.139	884
821.172	832
819.206	825.5
817.238	842
815.27	778.5
813.301	764
811.333	758
809.363	736
807.394	730.5
805.424	732
803.453	669
801.482	667
799.509	615
797.538	621
795.565	581
793.592	625.5
791.618	604
789.643	569.5
787.669	594.5
785.693	594.5
783.718	577.5
781.742	588
779.765	584
777.788	576
775.811	566
773.832	551
771.853	593
769.875	587
767.895	563.5
765.915	574
763.934	602
761.953	528.5
759.972	546.5
757.99	574.5
756.007	583
754.024	589
752.041	610
750.056	553.5
748.072	563
746.087	593.5
744.102	543
742.116	583
740.13	583
738.143	590.5
736.155	586.5
734.167	597.5
732.179	606
730.19	606
728.2	599
726.21	601.5
724.22	582.5
722.229	595
720.237	582
718.246	562
716.253	568.5
714.26	549
712.267	544.5
710.273	551.5
708.279	466.5
706.284	539.5
704.289	508.5
702.293	491.5
700.296	488.5
698.3	475.5
696.303	481
694.305	479.5
692.307	492.5
690.307	457.5
688.308	487.5
686.309	433.5
684.308	467.5
682.308	446.5
680.306	441.5
678.304	468
676.302	437.5
674.3	461.5
672.296	448.5
670.293	483
668.289	471.5
666.284	451
664.278	470.5
662.273	460
660.266	481
658.26	504
656.252	485
654.244	516
652.237	509
650.227	507
648.218	479
646.209	512
644.198	488
642.188	503
640.177	526
638.165	561
636.153	549
634.14	547.5
632.128	574
630.113	562
628.099	558.5
626.085	591
624.07	583
622.054	583.5
620.038	602.5
618.021	622.5
616.004	634
613.986	655.5
611.968	709
609.949	765
607.93	775
605.911	804
603.891	775
601.87	757
599.848	697
597.827	680
595.805	630
593.782	667
591.759	610
589.735	613.5
587.711	613
585.687	591
583.661	620
581.636	622.5
579.609	577
577.583	579
575.555	564
573.527	556.5
571.5	539.5
569.471	553
567.441	540.5
565.412	551
563.382	524.5
561.351	549
559.32	576
557.289	566
555.257	571
553.223	583
551.19	591
549.157	608
547.122	570
545.088	593.5
543.053	596
541.017	591
538.981	610.5
536.943	592.5
534.907	646
532.869	629
530.831	617.5
528.792	610.5
526.752	652.5
524.713	673
522.673	712
520.632	707.5
518.591	682
516.549	692.5
514.507	719
512.464	679
510.42	692
508.377	701
506.332	707
504.288	681
502.242	667
500.196	675.5
498.15	674
496.104	687
494.056	704
492.008	685.5
489.96	701
487.911	702.5
485.862	677
483.812	690.5
481.761	702.5
479.71	687.5
477.659	720.5
475.607	690
473.555	683
471.502	676.5
469.448	739.5
467.395	749
465.34	745.5
463.285	728
461.23	744.5
459.174	761
457.118	754
455.061	702
453.003	795
450.945	744
448.887	784.5
446.828	756.5
444.768	788
442.708	761.5
440.647	776.5
438.587	817.5
436.525	794
434.463	784.5
432.4	784
430.337	797.5
428.274	779
426.21	770
424.145	866.5
422.079	839.5
420.014	836
417.948	827.5
415.882	880.5
413.814	861.5
411.746	868
409.679	848
407.609	890
405.54	858
403.47	837
401.401	842.5
399.329	864
397.258	849
395.187	867
393.114	860.5
391.041	877.5
388.968	862
386.895	879.5
384.82	891.5
382.745	876.5
380.67	912
378.594	908
376.517	901.5
374.44	904
372.363	910
370.286	905
368.207	860
366.128	916.5
364.049	898.5
361.969	901.5
359.888	878
357.807	879
355.725	894.5
353.643	926
351.561	913
349.477	882.5
347.394	958.5
345.31	902.5
343.226	917
341.141	930
339.055	962
336.968	956
334.882	983.5
332.795	958.5
330.707	963
328.618	994
326.53	996
324.44	974.5
322.351	1027.5
320.26	1013.5
318.17	1045.5
316.078	1060
313.987	1051.5
311.895	1049
309.802	1099
307.708	1148
305.614	1112
303.52	1151
301.425	1160.5
299.329	1169.5
297.233	1214.5
295.137	1217.5
293.039	1226.5
290.942	1278.5
288.844	1266.5
286.745	1278.5
284.647	1299.5
282.546	1318.5
280.446	1356.5
278.346	1337.5
276.245	1340.5
274.143	1389.5
272.041	1426
269.939	1438.5
267.835	1482
265.731	1454
263.627	1449
261.522	1474.5
259.417	1491.5
257.311	1530
255.204	1497.5
253.098	1572.5
250.99	1548.5
248.882	1566
246.774	1595
244.664	1610
242.555	1650
240.445	1674
238.334	1716
236.223	1706
234.112	1744
232	1782
229.888	1814
227.775	1874
225.661	1852.5
223.546	1860
221.431	1887
219.316	1934
217.201	1900.5
215.084	1916.5
212.967	1930.5
210.85	1973
208.732	2003
206.614	2018
204.495	2043.5
202.375	2092.5
200.256	2079.5
198.135	2062.5
196.014	2150
193.893	2117
191.771	2174
189.648	2150
187.525	2190
185.401	2230
183.277	2222
181.152	2224
179.027	2284.5
176.901	2292
174.775	2330.5
172.648	2360.5
170.521	2406
168.393	2480
166.265	2508.5
164.136	2605.5
162.007	2729.5
159.876	2799.5
157.746	2796.5
155.615	2899.5
153.483	2963
151.351	3158
149.219	3234.5
147.086	3304.5
144.952	3437.5
142.818	3546
140.684	3631
138.548	3770
136.413	3774
134.276	3907
132.139	4015.5
130.002	4040
127.864	4155.5
125.725	4271
123.587	4418.5
121.447	4609.5
119.307	4789.5
117.166	4937
115.026	5054.5
112.885	5280
110.743	5530
108.6	5691
106.456	5853
104.313	6003.5
102.169	5906
100.023	5807
97.8789	5540.5
95.7328	5019.5
93.5869	4393.5
91.4392	3781.5
89.2919	3140
87.1447	2508
84.9959	1981
