3528.51	246
3527.23	260
3525.95	291.5
3524.67	279
3523.39	265
3522.1	287
3520.82	288
3519.54	277.5
3518.26	279.5
3516.97	291
3515.69	291
3514.4	288.5
3513.12	286
3511.84	288
3510.55	294.5
3509.26	298
3507.98	301
3506.69	306.5
3505.41	307
3504.12	323.5
3502.83	317.5
3501.54	330
3500.26	327
3498.97	313
3497.68	347
3496.39	337.5
3495.1	338
3493.81	324.5
3492.52	357.5
3491.23	352
3489.94	345.5
3488.65	369
3487.36	362
3486.07	378
3484.78	387.5
3483.49	401.5
3482.19	409.5
3480.9	396
3479.61	408.5
3478.31	404.5
3477.02	425
3475.73	419
3474.43	419.5
3473.14	416
3471.84	434
3470.54	432.5
3469.25	441
3467.95	416
3466.66	439.5
3465.36	437.5
3464.06	423.5
3462.76	454
3461.46	460
3460.17	453
3458.87	462.5
3457.57	457
3456.27	451.5
3454.97	471
3453.67	465.5
3452.37	478
3451.07	483
3449.77	485.5
3448.47	480
3447.16	489
3445.86	514.5
3444.56	519
3443.26	532.5
3441.95	533.5
3440.65	536.5
3439.35	543.5
3438.04	555.5
3436.74	582
3435.43	567.5
3434.13	584
3432.82	597
3431.52	602.5
3430.21	609
3428.9	627
3427.6	644.5
3426.29	650
3424.98	657
3423.67	678
3422.36	671.5
3421.06	692
3419.75	682.5
3418.44	718.5
3417.13	700.5
3415.82	717
3414.51	712
3413.2	715
3411.88	751.5
3410.57	732.5
3409.26	754.5
3407.95	740.5
3406.64	760.5
3405.32	777
3404.01	782
3402.7	785
3401.38	779.5
3400.07	771.5
3398.75	791
3397.44	805
3396.12	793.5
3394.81	799
3393.49	829.5
3392.18	826
3390.86	834
3389.54	854
3388.23	834
3386.91	847
3385.59	866
3384.27	871.5
3382.95	883.5
3381.63	894
3380.31	898
3378.99	906.5
3377.67	923.5
3376.35	901
3375.03	931
3373.71	927
3372.39	941.5
3371.07	948
3369.75	957.5
3368.42	961
3367.1	954.5
3365.78	979.5
3364.45	966.5
3363.13	1007
3361.81	1001
3360.48	1005
3359.16	1020.5
3357.83	1027
3356.51	1054.5
3355.18	1036
3353.85	1038
3352.53	1063
3351.2	1050.5
3349.87	1056
3348.54	1043
3347.22	1068
3345.89	1058
3344.56	1056
3343.23	1077
3341.9	1076
3340.57	1086.5
3339.24	1076
3337.91	1062
3336.58	1071.5
3335.25	1087
3333.92	1093.5
3332.58	1096
3331.25	1110.5
3329.92	1112
3328.59	1116.5
3327.25	1118
3325.92	1123.5
3324.58	1139
3323.25	1137.5
3321.92	1146
3320.58	1133
3319.25	1172.5
3317.91	1171
3316.57	1150
3315.24	1182.5
3313.9	1182
3312.56	1191.5
3311.23	1192.5
3309.89	1194
3308.55	1201
3307.21	1190.5
3305.87	1216
3304.53	1211.5
3303.19	1230
3301.85	1210
3300.51	1234
3299.17	1242
3297.83	1298.5
3296.49	1234
3295.15	1263.5
3293.81	1244.5
3292.46	1273.5
3291.12	1236
3289.78	1276
3288.43	1256.5
3287.09	1288
3285.75	1261
3284.4	1270
3283.06	1286.5
3281.71	1295
3280.37	1303.5
3279.02	1299.5
3277.67	1319
3276.33	1350.5
3274.98	1331
3273.63	1339.5
3272.28	1357
3270.94	1361.5
3269.59	1373.5
3268.24	1417
3266.89	1398.5
3265.54	1409
3264.19	1431
3262.84	1488
3261.49	1483.5
3260.14	1514
3258.79	1516.5
3257.44	1555.5
3256.08	1575.5
3254.73	1608.5
3253.38	1649.5
3252.03	1712
3250.67	1732
3249.32	1777.5
3247.96	1783
3246.61	1866
3245.26	1862.5
3243.9	1924
3242.54	2034
3241.19	2054
3239.83	2112
3238.48	2137
3237.12	2193.5
3235.76	2251
3234.41	2313.5
3233.05	2360
3231.69	2420.5
3230.33	2467
3228.97	2509
3227.61	2551.5
3226.25	2605.5
3224.89	2647.5
3223.53	2684.5
3222.17	2711
3220.81	2740.5
3219.45	2795
3218.09	2798.5
3216.72	2888
3215.36	2892
3214	2873.5
3212.63	2917
3211.27	2951
3209.91	2992.5
3208.54	3013
3207.18	2987
3205.81	3048.5
3204.45	3055
3203.08	3081
3201.71	3054.5
3200.35	3103
3198.98	3093
3197.61	3108
3196.25	3131.5
3194.88	3153.5
3193.51	3132.5
3192.14	3169.5
3190.77	3172.5
3189.4	3195
3188.03	3178
3186.66	3225
3185.29	3212
3183.92	3260
3182.55	3285
3181.18	3287.5
3179.81	3299.5
3178.44	3328.5
3177.06	3374.5
3175.69	3399.5
3174.32	3419
3172.94	3434
3171.57	3474
3170.2	3471.5
3168.82	3493
3167.45	3536.5
3166.07	3541.5
3164.69	3575
3163.32	3623.5
3161.94	3621.5
3160.56	3641.5
3159.19	3683.5
3157.81	3723
3156.43	3726
3155.05	3779.5
3153.67	3780
3152.3	3850
3150.92	3819
3149.54	3825
3148.16	3896
3146.78	3939
3145.4	3941
3144.01	3978.5
3142.63	3951.5
3141.25	4013
3139.87	4037.5
3138.49	4077.5
3137.1	4094.5
3135.72	4151
3134.34	4145.5
3132.95	4219
3131.57	4205.5
3130.18	4215
3128.8	4277.5
3127.41	4339.5
3126.03	4332
3124.64	4363
3123.25	4368
3121.87	4381
3120.48	4452.5
3119.09	4487
3117.7	4481.5
3116.32	4519
3114.93	4547.5
3113.54	4520.5
3112.15	4543.5
3110.76	4592.5
3109.37	4604.5
3107.98	4623.5
3106.59	4654
3105.2	4650.5
3103.8	4655
3102.41	4701.5
3101.02	4713
3099.63	4700
3098.23	4720.5
3096.84	4765
3095.45	4757.5
3094.05	4810
3092.66	4852
3091.26	4862
3089.87	4837
3088.47	4900.5
3087.08	4864
3085.68	4899.5
3084.28	4903.5
3082.89	4898.5
3081.49	5009.5
3080.09	4969
3078.69	5001.5
3077.3	4979.5
3075.9	4960.5
3074.5	4992
3073.1	5039
3071.7	5003
3070.3	5060.5
3068.9	5029.5
3067.5	5042.5
3066.09	5043.5
3064.69	5063.5
3063.29	5128.5
3061.89	5089
3060.48	5118.5
3059.08	5073
3057.68	5111
3056.27	5151.5
3054.87	5144.5
3053.46	5215
3052.06	5207.5
3050.65	5233.5
3049.25	5232
3047.84	5245
3046.44	5216.5
3045.03	5319.5
3043.62	5307
3042.21	5325
3040.81	5348.5
3039.4	5346
3037.99	5378
3036.58	5311
3035.17	5371.5
3033.76	5394
3032.35	5440.5
3030.94	5417
3029.53	5412
3028.12	5443.5
3026.71	5481
3025.29	5483
3023.88	5526.5
3022.47	5481.5
3021.06	5465.5
3019.64	5481
3018.23	5492.5
3016.82	5465.5
3015.4	5524.5
3013.99	5527
3012.57	5474
3011.15	5490.5
3009.74	5552
3008.32	5564
3006.91	5601.5
3005.49	5603.5
3004.07	5552
3002.65	5593
3001.24	5639
2999.82	5650.5
2998.4	5697
2996.98	5678
2995.56	5768.5
2994.14	5792
2992.72	5807.5
2991.3	5821
2989.88	5833
2988.46	5848
2987.03	5884.5
2985.61	5917
2984.19	5950
2982.77	6021
2981.34	6051
2979.92	6045.5
2978.49	6099
2977.07	6122.5
2975.65	6155
2974.22	6202
2972.79	6196.5
2971.37	6206.5
2969.94	6232.5
2968.52	6298
2967.09	6323.5
2965.66	6293.5
2964.23	6316.5
2962.81	6361
2961.38	6396
2959.95	6373.5
2958.52	6377.5
2957.09	6386.5
2955.66	6377.5
2954.23	6453
2952.8	6410
2951.37	6437.5
2949.94	6457.5
2948.5	6452
2947.07	6453.5
2945.64	6426
2944.21	6497.5
2942.77	6501.5
2941.34	6474
2939.91	6508
2938.47	6593
2937.04	6595.5
2935.6	6554
2934.17	6648
2932.73	6621
2931.29	6606.5
2929.86	6690.5
2928.42	6735.5
2926.98	6678.5
2925.55	6723
2924.11	6698
2922.67	6721
2921.23	6640
2919.79	6750
2918.35	6705.5
2916.91	6703.5
2915.47	6720.5
2914.03	6718
2912.59	6725
2911.15	6748.5
2909.71	6779
2908.26	6754.5
2906.82	6804.5
2905.38	6832
2903.94	6859
2902.49	6824
2901.05	6827.5
2899.6	6824.5
2898.16	6851
2896.71	6903
2895.27	6897.5
2893.82	6842.5
2892.38	6922
2890.93	6865
2889.48	6891
2888.03	6871
2886.59	6917.5
2885.14	6891
2883.69	6950.5
2882.24	6959.5
2880.79	6913.5
2879.34	6948.5
2877.89	6959.5
2876.44	7000.5
2874.99	6950
2873.54	6925
2872.09	6955.5
2870.64	6965
2869.18	6997.5
2867.73	6980.5
2866.28	7048.5
2864.83	7028
2863.37	6982.5
2861.92	6991.5
2860.46	7025.5
2859.01	7022.5
2857.55	7107.5
2856.1	7031.5
2854.64	7057
2853.19	7080
2851.73	7071
2850.27	7039
2848.81	7105
2847.36	7042.5
2845.9	7052.5
2844.44	7073
2842.98	7003.5
2841.52	7003
2840.06	7026
2838.6	7038.5
2837.14	7020
2835.68	7005.5
2834.22	7038.5
2832.76	7006.5
2831.3	6960
2829.83	7012.5
2828.37	7008
2826.91	6987.5
2825.44	7002
2823.98	6974
2822.52	6975.5
2821.05	6959
2819.59	6951
2818.12	6943.5
2816.66	6957
2815.19	6978
2813.72	6944.5
2812.26	6968.5
2810.79	6933
2809.32	6950.5
2807.85	6883.5
2806.38	6870
2804.92	6899.5
2803.45	6933.5
2801.98	6935
2800.51	6878.5
2799.04	6847.5
2797.57	6873
2796.1	6803.5
2794.62	6895
2793.15	6817
2791.68	6878
2790.21	6894.5
2788.73	6824.5
2787.26	6878
2785.79	6820
2784.31	6835.5
2782.84	6834
2781.36	6822
2779.89	6791
2778.41	6878
2776.94	6895.5
2775.46	6884.5
2773.99	6891.5
2772.51	6939.5
2771.03	6910
2769.55	6923
2768.07	6975
2766.6	6944
2765.12	6967.5
2763.64	6946
2762.16	7010.5
2760.68	6870.5
2759.2	6978
2757.72	6967
2756.24	6975
2754.75	6969.5
2753.27	6950
2751.79	6910
2750.31	6903
2748.82	6920.5
2747.34	6935.5
2745.86	6892
2744.37	7016.5
2742.89	6876.5
2741.4	6884
2739.92	6915.5
2738.43	6920
2736.94	6900
2735.46	6890.5
2733.97	6932.5
2732.48	6934.5
2731	6909
2729.51	6864
2728.02	6905
2726.53	6904.5
2725.04	6858
2723.55	6829
2722.06	6869
2720.57	6806.5
2719.08	6851
2717.59	6856.5
2716.1	6838.5
2714.61	6812.5
2713.11	6819.5
2711.62	6835
2710.13	6850
2708.64	6808.5
2707.14	6824
2705.65	6842.5
2704.15	6835
2702.66	6797
2701.16	6751
2699.67	6792
2698.17	6779
2696.67	6770
2695.18	6787
2693.68	6749.5
2692.18	6725
2690.69	6756
2689.19	6682.5
2687.69	6698
2686.19	6689.5
2684.69	6625
2683.19	6665
2681.69	6671
2680.19	6612.5
2678.69	6544
2677.19	6577.5
2675.68	6602.5
2674.18	6533
2672.68	6596.5
2671.18	6592
2669.67	6542
2668.17	6574
2666.66	6530.5
2665.16	6521
2663.66	6553.5
2662.15	6584
2660.64	6561.5
2659.14	6497.5
2657.63	6514.5
2656.13	6474.5
2654.62	6541
2653.11	6504
2651.6	6414
2650.09	6507
2648.58	6399.5
2647.08	6407.5
2645.57	6406
2644.06	6460.5
2642.55	6393.5
2641.04	6400
2639.52	6314.5
2638.01	6340
2636.5	6322
2634.99	6354.5
2633.48	6314
2631.96	6247.5
2630.45	6265.5
2628.94	6215.5
2627.42	6288
2625.91	6257
2624.39	6244.5
2622.88	6273.5
2621.36	6215
2619.85	6261
2618.33	6220
2616.81	6190
2615.3	6200.5
2613.78	6202.5
2612.26	6144
2610.74	6129.5
2609.22	6182.5
2607.7	6184.5
2606.18	6104
2604.66	6106.5
2603.14	6033
2601.62	6031.5
2600.1	6077
2598.58	5968
2597.06	5936.5
2595.54	5964
2594.01	5973.5
2592.49	5919.5
2590.97	5923
2589.44	5971
2587.92	5982.5
2586.39	5945.5
2584.87	5954
2583.34	5925.5
2581.82	5944.5
2580.29	5903.5
2578.76	5906
2577.24	5900
2575.71	5886.5
2574.18	5908
2572.65	5909
2571.13	5899.5
2569.6	5954.5
2568.07	5911
2566.54	5912
2565.01	5851.5
2563.48	5824
2561.95	5866.5
2560.42	5810
2558.88	5810
2557.35	5811.5
2555.82	5803
2554.29	5813
2552.75	5741
2551.22	5730.5
2549.69	5708.5
2548.15	5743.5
2546.62	5668
2545.08	5704
2543.55	5706
2542.01	5671
2540.47	5675
2538.94	5633
2537.4	5575.5
2535.86	5595
2534.33	5536.5
2532.79	5556.5
2531.25	5558
2529.71	5519
2528.17	5510.5
2526.63	5489.5
2525.09	5501.5
2523.55	5472.5
2522.01	5484
2520.47	5436
2518.92	5480
2517.38	5471.5
2515.84	5440
2514.3	5378.5
2512.75	5387.5
2511.21	5373.5
2509.67	5331.5
2508.12	5307.5
2506.58	5295
2505.03	5297
2503.49	5192.5
2501.94	5273.5
2500.39	5269
2498.85	5213
2497.3	5237
2495.75	5206
2494.2	5178
2492.65	5181
2491.11	5134.5
2489.56	5110.5
2488.01	5096
2486.46	5154.5
2484.91	5085.5
2483.36	5071
2481.8	5098.5
2480.25	5049.5
2478.7	5036
2477.15	5015
2475.6	5005
2474.04	5016
2472.49	4983.5
2470.93	4899.5
2469.38	4919.5
2467.83	4912
2466.27	4857
2464.71	4858
2463.16	4782.5
2461.6	4790.5
2460.05	4783.5
2458.49	4765
2456.93	4720.5
2455.37	4763
2453.81	4686
2452.26	4669
2450.7	4670
2449.14	4595
2447.58	4625.5
2446.02	4578.5
2444.46	4532.5
2442.9	4542.5
2441.33	4549
2439.77	4540.5
2438.21	4535.5
2436.65	4621
2435.08	4512
2433.52	4500.5
2431.96	4484.5
2430.39	4479.5
2428.83	4490
2427.26	4463.5
2425.7	4439.5
2424.13	4463
2422.56	4470.5
2421	4423
2419.43	4403
2417.86	4371
2416.3	4379
2414.73	4341.5
2413.16	4319.5
2411.59	4351
2410.02	4365
2408.45	4352
2406.88	4352
2405.31	4375.5
2403.74	4364
2402.17	4328.5
2400.6	4319.5
2399.02	4292.5
2397.45	4280
2395.88	4265.5
2394.3	4242.5
2392.73	4273.5
2391.16	4208.5
2389.58	4210
2388.01	4253
2386.43	4241
2384.86	4237.5
2383.28	4240
2381.7	4205
2380.13	4245.5
2378.55	4214
2376.97	4252.5
2375.39	4253.5
2373.81	4211.5
2372.23	4196
2370.65	4168
2369.07	4201.5
2367.49	4141.5
2365.91	4143.5
2364.33	4098.5
2362.75	4143
2361.17	4084.5
2359.59	4112
2358.01	4077
2356.42	4069
2354.84	4048
2353.25	4078.5
2351.67	4069.5
2350.09	4076
2348.5	4045.5
2346.92	4029.5
2345.33	4066
2343.74	4024
2342.16	4016.5
2340.57	4082
2338.98	4005
2337.39	4022.5
2335.81	4002
2334.22	4001
2332.63	3988.5
2331.04	3988.5
2329.45	3958.5
2327.86	3995
2326.27	3971
2324.68	3934.5
2323.09	3927
2321.49	3910
2319.9	3864
2318.31	3896
2316.72	3869
2315.12	3840
2313.53	3800.5
2311.93	3799
2310.34	3788.5
2308.74	3770.5
2307.15	3812
2305.55	3773
2303.96	3743
2302.36	3716.5
2300.76	3677.5
2299.17	3656.5
2297.57	3665
2295.97	3666
2294.37	3655.5
2292.77	3681.5
2291.17	3607
2289.57	3604
2287.97	3654
2286.37	3608.5
2284.77	3579
2283.17	3628.5
2281.57	3625
2279.96	3611.5
2278.36	3617.5
2276.76	3613
2275.15	3604
2273.55	3530
2271.95	3498.5
2270.34	3501
2268.74	3511.5
2267.13	3532.5
2265.52	3453.5
2263.92	3428
2262.31	3440.5
2260.7	3429.5
2259.1	3432.5
2257.49	3454.5
2255.88	3410.5
2254.27	3437.5
2252.66	3431
2251.05	3450
2249.44	3414
2247.83	3446
2246.22	3414
2244.61	3451.5
2243	3409.5
2241.39	3426.5
2239.77	3365.5
2238.16	3374.5
2236.55	3364.5
2234.93	3308.5
2233.32	3306
2231.7	3308.5
2230.09	3271
2228.47	3250.5
2226.86	3256
2225.24	3242
2223.63	3220.5
2222.01	3215.5
2220.39	3170
2218.77	3214.5
2217.16	3182
2215.54	3152
2213.92	3178.5
2212.3	3150
2210.68	3098.5
2209.06	3148.5
2207.44	3106
2205.82	3103
2204.19	3097
2202.57	3047
2200.95	3094.5
2199.33	3120.5
2197.7	3033.5
2196.08	3028
2194.46	3004
2192.83	3032.5
2191.21	3066
2189.58	3023.5
2187.96	3003.5
2186.33	2966.5
2184.7	3000.5
2183.08	3018.5
2181.45	2968
2179.82	2987.5
2178.19	2962
2176.57	2915.5
2174.94	2913
2173.31	2868
2171.68	2860.5
2170.05	2891
2168.42	2902.5
2166.79	2893.5
2165.16	2836.5
2163.52	2838.5
2161.89	2819.5
2160.26	2818
2158.63	2798
2156.99	2800
2155.36	2767.5
2153.73	2744
2152.09	2744
2150.46	2775.5
2148.82	2754.5
2147.18	2729
2145.55	2727.5
2143.91	2699.5
2142.27	2674.5
2140.64	2682.5
2139	2688
2137.36	2672.5
2135.72	2676
2134.08	2666
2132.44	2671
2130.8	2612
2129.16	2610.5
2127.52	2599.5
2125.88	2579.5
2124.24	2542
2122.6	2532
2120.95	2521
2119.31	2525
2117.67	2465.5
2116.02	2473.5
2114.38	2463.5
2112.74	2495
2111.09	2486
2109.45	2466.5
2107.8	2455.5
2106.15	2430
2104.51	2435.5
2102.86	2421.5
2101.21	2410
2099.56	2411.5
2097.92	2436.5
2096.27	2401
2094.62	2407
2092.97	2373
2091.32	2391.5
2089.67	2402.5
2088.02	2378.5
2086.37	2402
2084.72	2377.5
2083.06	2377.5
2081.41	2350.5
2079.76	2376
2078.1	2335.5
2076.45	2374.5
2074.8	2349.5
2073.14	2347.5
2071.49	2340
2069.83	2358.5
2068.18	2289.5
2066.52	2280
2064.86	2322
2063.21	2307
2061.55	2307
2059.89	2314
2058.23	2256
2056.57	2289
2054.92	2285
2053.26	2256
2051.6	2274
2049.94	2286
2048.27	2246.5
2046.61	2241
2044.95	2199.5
2043.29	2231
2041.63	2168.5
2039.97	2170.5
2038.3	2174
2036.64	2167.5
2034.97	2141.5
2033.31	2181.5
2031.64	2141
2029.98	2118.5
2028.31	2088.5
2026.65	2099.5
2024.98	2071.5
2023.31	2062
2021.65	2062.5
2019.98	2056.5
2018.31	2043.5
2016.64	2050
2014.97	2029.5
2013.3	2039.5
2011.63	2025.5
2009.96	1990.5
2008.29	2016.5
2006.62	2003
2004.95	2008.5
2003.28	1981
2001.6	1982.5
1999.93	1973.5
1998.26	1963
1996.58	1951
1994.91	1949
1993.24	1977
1991.56	1917.5
1989.89	1940
1988.21	1940.5
1986.53	1910.5
1984.86	1918
1983.18	1915.5
1981.5	1881.5
1979.82	1877
1978.15	1894.5
1976.47	1868
1974.79	1859.5
1973.11	1859.5
1971.43	1852
1969.75	1843
1968.07	1838.5
1966.38	1811
1964.7	1773.5
1963.02	1792
1961.34	1769.5
1959.66	1790
1957.97	1784.5
1956.29	1767
1954.6	1784.5
1952.92	1738.5
1951.23	1767.5
1949.55	1755.5
1947.86	1722
1946.18	1721.5
1944.49	1722.5
1942.8	1731.5
1941.11	1719
1939.43	1720
1937.74	1692.5
1936.05	1690
1934.36	1680
1932.67	1691
1930.98	1669.5
1929.29	1681.5
1927.6	1664.5
1925.91	1637
1924.21	1625
1922.52	1634.5
1920.83	1636.5
1919.14	1618.5
1917.44	1614
1915.75	1621.5
1914.05	1590
1912.36	1576.5
1910.66	1591.5
1908.97	1565
1907.27	1573.5
1905.58	1554
1903.88	1554.5
1902.18	1560
1900.48	1539
1898.79	1544
1897.09	1510.5
1895.39	1520.5
1893.69	1511
1891.99	1525
1890.29	1491
1888.59	1484.5
1886.89	1493
1885.18	1465.5
1883.48	1485.5
1881.78	1469
1880.08	1473.5
1878.37	1462.5
1876.67	1434.5
1874.96	1439.5
1873.26	1420.5
1871.55	1398.5
1869.85	1395
1868.14	1396.5
1866.44	1379
1864.73	1373
1863.02	1359.5
1861.32	1392.5
1859.61	1382
1857.9	1392
1856.19	1336
1854.48	1346.5
1852.77	1336.5
1851.06	1368
1849.35	1337.5
1847.64	1324
1845.93	1326
1844.21	1321
1842.5	1319.5
1840.79	1314
1839.08	1320
1837.36	1317.5
1835.65	1324.5
1833.93	1297
1832.22	1300.5
1830.5	1301.5
1828.79	1258.5
1827.07	1260.5
1825.36	1238.5
1823.64	1249.5
1821.92	1244.5
1820.2	1214
1818.48	1219.5
1816.77	1221
1815.05	1228
1813.33	1207
1811.61	1214
1809.89	1200
1808.16	1191.5
1806.44	1195.5
1804.72	1178
1803	1194
1801.28	1173
1799.55	1175.5
1797.83	1165
1796.11	1171.5
1794.38	1157.5
1792.66	1133
1790.93	1120
1789.21	1146.5
1787.48	1131.5
1785.75	1121
1784.03	1115.5
1782.3	1114
1780.57	1103
1778.84	1097
1777.11	1107.5
1775.38	1094
1773.66	1113.5
1771.93	1124
1770.19	1103.5
1768.46	1091.5
1766.73	1107
1765	1091
1763.27	1093.5
1761.54	1081
1759.8	1070
1758.07	1078.5
1756.34	1087.5
1754.6	1121.5
1752.87	1086.5
1751.13	1103
1749.4	1112.5
1747.66	1098.5
1745.92	1088.5
1744.19	1089
1742.45	1088
1740.71	1077.5
1738.97	1074.5
1737.23	1061.5
1735.49	1067.5
1733.75	1037.5
1732.01	1044.5
1730.27	1021
1728.53	1028.5
1726.79	1028
1725.05	1027
1723.31	1026
1721.57	996.5
1719.82	1015
1718.08	998.5
1716.34	1005
1714.59	964.5
1712.85	972.5
1711.1	958
1709.36	966
1707.61	973
1705.86	967
1704.12	945
1702.37	956.5
1700.62	943.5
1698.87	918
1697.12	941
1695.37	927
1693.62	902.5
1691.87	915
1690.12	891
1688.37	903.5
1686.62	896
1684.87	884.5
1683.12	907
1681.36	927
1679.61	902.5
1677.86	885
1676.1	878
1674.35	913.5
1672.59	901
1670.84	906.5
1669.08	928
1667.33	939.5
1665.57	949.5
1663.81	951.5
1662.06	967.5
1660.3	987.5
1658.54	989.5
1656.78	998
1655.02	986
1653.26	964
1651.5	933
1649.74	907
1647.98	898
1646.22	894
1644.46	853
1642.7	866.5
1640.93	868
1639.17	832.5
1637.41	836.5
1635.64	835.5
1633.88	823
1632.11	821.5
1630.35	824.5
1628.58	803.5
1626.81	822.5
1625.05	799.5
1623.28	793.5
1621.51	799
1619.75	778.5
1617.98	787
1616.21	767
1614.44	766.5
1612.67	780.5
1610.9	761
1609.13	767.5
1607.36	760.5
1605.58	763.5
1603.81	761
1602.04	752
1600.27	753.5
1598.49	763.5
1596.72	740
1594.95	755
1593.17	741
1591.4	746.5
1589.62	731
1587.84	755.5
1586.07	754
1584.29	737.5
1582.51	747.5
1580.74	750.5
1578.96	741
1577.18	723
1575.4	729.5
1573.62	721
1571.84	715
1570.06	716
1568.28	709
1566.5	689.5
1564.72	701
1562.93	678
1561.15	700
1559.37	683.5
1557.58	694.5
1555.8	697
1554.02	701
1552.23	685
1550.45	690.5
1548.66	671.5
1546.87	673.5
1545.09	674.5
1543.3	661.5
1541.51	678.5
1539.72	675.5
1537.94	660.5
1536.15	630.5
1534.36	634
1532.57	640.5
1530.78	628
1528.99	618.5
1527.2	628.5
1525.4	641.5
1523.61	632
1521.82	638
1520.03	624
1518.23	627.5
1516.44	623
1514.65	623.5
1512.85	625
1511.06	619.5
1509.26	634.5
1507.46	619
1505.67	618
1503.87	606.5
1502.07	613.5
1500.28	625.5
1498.48	631.5
1496.68	609.5
1494.88	625.5
1493.08	628
1491.28	630.5
1489.48	623.5
1487.68	623.5
1485.88	625.5
1484.08	627
1482.27	631.5
1480.47	647
1478.67	645.5
1476.86	665
1475.06	666
1473.25	683
1471.45	683.5
1469.64	728.5
1467.84	723.5
1466.03	744.5
1464.23	749
1462.42	770.5
1460.61	788.5
1458.8	791
1456.99	806.5
1455.18	818.5
1453.37	816
1451.56	837
1449.75	864.5
1447.94	888.5
1446.13	869
1444.32	902.5
1442.51	923.5
1440.7	908
1438.88	871.5
1437.07	847
1435.26	797.5
1433.44	774.5
1431.63	732
1429.81	692
1427.99	647
1426.18	639.5
1424.36	628.5
1422.54	614
1420.73	609.5
1418.91	587
1417.09	578.5
1415.27	570
1413.45	564.5
1411.63	555.5
1409.81	539.5
1407.99	535.5
1406.17	545
1404.35	523
1402.53	534.5
1400.7	522
1398.88	521
1397.06	510
1395.23	513.5
1393.41	499
1391.58	515
1389.76	511.5
1387.93	491
1386.11	498.5
1384.28	520
1382.45	508
1380.62	504
1378.8	504
1376.97	509.5
1375.14	512.5
1373.31	506.5
1371.48	506
1369.65	485.5
1367.82	500
1365.99	497
1364.16	507
1362.32	495.5
1360.49	493.5
1358.66	512.5
1356.82	494
1354.99	486
1353.16	493.5
1351.32	497
1349.48	490
1347.65	472
1345.81	483.5
1343.98	476.5
1342.14	466
1340.3	487
1338.46	473.5
1336.62	493
1334.79	481
1332.95	500.5
1331.11	494.5
1329.27	499.5
1327.42	511.5
1325.58	505
1323.74	537
1321.9	521.5
1320.06	552
1318.21	564.5
1316.37	558.5
1314.53	590.5
1312.68	591.5
1310.84	619
1308.99	633
1307.15	659.5
1305.3	651
1303.45	677.5
1301.61	675.5
1299.76	680
1297.91	657.5
1296.06	644.5
1294.21	592
1292.36	570
1290.51	558
1288.66	527
1286.81	529
1284.96	528
1283.11	527
1281.26	533
1279.4	521
1277.55	520
1275.7	517
1273.84	543
1271.99	540.5
1270.13	525
1268.28	517
1266.42	534
1264.56	530.5
1262.71	526
1260.85	509.5
1258.99	506
1257.13	495.5
1255.27	479
1253.41	470.5
1251.56	471
1249.7	453.5
1247.83	457.5
1245.97	436
1244.11	440.5
1242.25	417
1240.39	428
1238.52	419
1236.66	417
1234.8	421
1232.93	414.5
1231.07	407.5
1229.2	406
1227.34	408
1225.47	400
1223.6	397
1221.74	386.5
1219.87	393.5
1218	392
1216.13	384.5
1214.26	379.5
1212.39	376
1210.53	372.5
1208.65	388.5
1206.78	376
1204.91	365.5
1203.04	377.5
1201.17	380.5
1199.3	363
1197.42	367
1195.55	376
1193.68	366.5
1191.8	366
1189.93	368.5
1188.05	344.5
1186.17	349
1184.3	361
1182.42	363.5
1180.54	357
1178.67	355.5
1176.79	365
1174.91	345
1173.03	345.5
1171.15	355
1169.27	351.5
1167.39	359
1165.51	368.5
1163.63	349.5
1161.75	361.5
1159.86	363
1157.98	354
1156.1	360.5
1154.21	349
1152.33	355
1150.44	346.5
1148.56	341
1146.67	359
1144.79	351.5
1142.9	363.5
1141.01	362
1139.12	368
1137.24	357
1135.35	390.5
1133.46	394
1131.57	412.5
1129.68	405
1127.79	418.5
1125.9	399.5
1124.01	382.5
1122.12	407.5
1120.22	398
1118.33	390.5
1116.44	396.5
1114.54	378.5
1112.65	396.5
1110.75	384.5
1108.86	376
1106.96	387
1105.07	394
1103.17	404.5
1101.27	413
1099.38	421.5
1097.48	435.5
1095.58	423.5
1093.68	449
1091.78	452
1089.88	461.5
1087.98	450
1086.08	471
1084.18	453
1082.28	487
1080.38	483.5
1078.47	476
1076.57	457.5
1074.67	459
1072.76	442
1070.86	459.5
1068.95	449
1067.05	483
1065.14	475
1063.24	465.5
1061.33	441.5
1059.42	434
1057.51	410
1055.6	402
1053.7	399
1051.79	392.5
1049.88	381
1047.97	392
1046.06	364.5
1044.14	377.5
1042.23	378.5
1040.32	377
1038.41	388.5
1036.5	378
1034.58	371
1032.67	371
1030.75	382.5
1028.84	385
1026.92	378
1025.01	381
1023.09	377
1021.17	384
1019.26	376.5
1017.34	372.5
1015.42	388.5
1013.5	390
1011.58	377
1009.66	375
1007.74	370
1005.82	375
1003.9	376
1001.98	376
1000.06	393.5
998.134	405.5
996.212	403.5
994.288	404
992.364	414.5
990.44	422.5
988.515	421.5
986.589	425
984.663	478.5
982.737	460.5
980.81	471.5
978.883	497
976.955	484
975.027	503
973.098	500
971.169	517.5
969.239	510.5
967.308	493
965.378	512
963.447	498.5
961.516	508.5
959.583	504.5
957.65	515
955.718	527.5
953.784	516
951.85	520.5
949.916	550
947.981	543
946.045	548
944.109	557.5
942.173	547
940.236	550
938.298	544
936.36	530.5
934.422	509.5
932.484	495.5
930.544	457
928.604	454
926.664	417.5
924.724	415
922.782	394
920.84	388
918.898	391
916.955	400
915.012	384.5
913.068	389.5
911.124	414
909.18	389.5
907.235	396.5
905.289	412
903.343	398.5
901.397	395
899.45	414.5
897.502	420.5
895.554	419.5
893.605	429
891.657	431
889.707	426.5
887.758	436.5
885.807	434
883.856	430
881.905	426
879.953	429
878.001	440
876.048	439.5
874.094	441
872.14	444.5
870.186	442
868.232	424.5
866.276	431
864.321	414.5
862.365	439
860.408	409.5
858.451	409
856.493	410
854.535	405.5
852.576	419
850.617	409.5
848.658	420
846.698	405.5
844.737	405.5
842.776	405
840.814	392.5
838.852	396.5
836.89	384.5
834.927	389.5
832.963	384
830.999	382.5
829.035	372
827.07	358
825.105	353
823.139	348
821.172	352
819.206	352
817.238	346.5
815.27	338.5
813.301	340.5
811.333	335.5
809.363	328.5
807.394	331.5
805.424	313
803.453	309.5
801.482	327.5
799.509	319
797.538	315
795.565	300
793.592	292
791.618	297.5
789.643	293
787.669	289
785.693	291
783.718	288.5
781.742	295
779.765	277.5
777.788	286.5
775.811	298.5
773.832	284.5
771.853	297
769.875	285
767.895	296.5
765.915	282
763.934	287.5
761.953	290.5
759.972	279
757.99	282.5
756.007	291
754.024	277.5
752.041	284
750.056	275.5
748.072	289
746.087	283.5
744.102	293
742.116	292.5
740.13	288.5
738.143	291
736.155	291.5
734.167	303
732.179	292.5
730.19	294
728.2	302.5
726.21	288.5
724.22	295
722.229	297.5
720.237	299.5
718.246	288
716.253	292
714.26	288
712.267	289
710.273	282.5
708.279	293
706.284	285.5
704.289	287
702.293	283.5
700.296	280.5
698.3	287
696.303	293.5
694.305	292
692.307	278
690.307	291
688.308	284
686.309	291
684.308	293
682.308	299.5
680.306	299.5
678.304	304
676.302	280.5
674.3	303
672.296	314
670.293	315
668.289	304
666.284	308
664.278	294.5
662.273	302
660.266	302.5
658.26	302.5
656.252	291
654.244	310
652.237	292
650.227	323.5
648.218	307.5
646.209	317
644.198	306
642.188	327.5
640.177	311
638.165	314
636.153	319.5
634.14	338.5
632.128	312.5
630.113	334
628.099	321.5
626.085	324
624.07	331
622.054	331.5
620.038	319.5
618.021	339.5
616.004	334
613.986	327
611.968	334
609.949	344
607.93	342
605.911	331.5
603.891	334.5
601.87	333
599.848	326
597.827	334
595.805	332
593.782	326
591.759	328.5
589.735	321
587.711	323.5
585.687	325
583.661	323
581.636	329.5
579.609	329.5
577.583	311
575.555	319.5
573.527	339
571.5	338
569.471	332
567.441	337
565.412	348
563.382	327
561.351	360
559.32	358.5
557.289	355.5
555.257	364
553.223	377
551.19	404
549.157	417.5
547.122	419
545.088	452.5
543.053	465
541.017	491.5
538.981	555
536.943	648.5
534.907	776.5
532.869	1016.5
530.831	1402
528.792	2078.5
526.752	3216
524.713	4655.5
522.673	5575.5
520.632	5324.5
518.591	4243.5
516.549	2986.5
514.507	2031
512.464	1368
510.42	974.5
508.377	748.5
506.332	611.5
504.288	528.5
502.242	509.5
500.196	483
498.15	464
496.104	454
494.056	462
492.008	430
489.96	429
487.911	431.5
485.862	427.5
483.812	417.5
481.761	413
479.71	404
477.659	403.5
475.607	395.5
473.555	392.5
471.502	393.5
469.448	400
467.395	399
465.34	392
463.285	395.5
461.23	387.5
459.174	390
457.118	406
455.061	412.5
453.003	399.5
450.945	409
448.887	401
446.828	414
444.768	412
442.708	427.5
440.647	424
438.587	422.5
436.525	451
434.463	438
432.4	432.5
430.337	435.5
428.274	452.5
426.21	459.5
424.145	456.5
422.079	452
420.014	450.5
417.948	459.5
415.882	449.5
413.814	455.5
411.746	458
409.679	463.5
407.609	450
405.54	453
403.47	458
401.401	470
399.329	466.5
397.258	471.5
395.187	468
393.114	467
391.041	481
388.968	487.5
386.895	485.5
384.82	474
382.745	483
380.67	490
378.594	485
376.517	489.5
374.44	493
372.363	495.5
370.286	506.5
368.207	520.5
366.128	516
364.049	509
361.969	512
359.888	513.5
357.807	516.5
355.725	514
353.643	527
351.561	543
349.477	536
347.394	537.5
345.31	535.5
343.226	535.5
341.141	563
339.055	543
336.968	572.5
334.882	559.5
332.795	573
330.707	598
328.618	609.5
326.53	619
324.44	621.5
322.351	634
320.26	641.5
318.17	648
316.078	678.5
313.987	723.5
311.895	725
309.802	735.5
307.708	780.5
305.614	784
303.52	795
301.425	778
299.329	759
297.233	759
295.137	749
293.039	729
290.942	706
288.844	721
286.745	719.5
284.647	701
282.546	699
280.446	712.5
278.346	703.5
276.245	693.5
274.143	714
272.041	716.5
269.939	722
267.835	709
265.731	712.5
263.627	744.5
261.522	731.5
259.417	750
257.311	746
255.204	742.5
253.098	750.5
250.99	778.5
248.882	782
246.774	777.5
244.664	769
242.555	803.5
240.445	814
238.334	816
236.223	835.5
234.112	812.5
232	832.5
229.888	870.5
227.775	879.5
225.661	851
223.546	868.5
221.431	873
219.316	882.5
217.201	868.5
215.084	904.5
212.967	920.5
210.85	898
208.732	916.5
206.614	926
204.495	929.5
202.375	917.5
200.256	941
198.135	949
196.014	956.5
193.893	959
191.771	961
189.648	984
187.525	986.5
185.401	985.5
183.277	1005.5
181.152	1016
179.027	1008.5
176.901	1023
174.775	1026.5
172.648	1062.5
170.521	1076
168.393	1058.5
166.265	1101
164.136	1096.5
162.007	1110.5
159.876	1159.5
157.746	1165.5
155.615	1204.5
153.483	1218
151.351	1212.5
149.219	1254
147.086	1285
144.952	1349.5
142.818	1348
140.684	1370.5
138.548	1434
136.413	1441.5
134.276	1462.5
132.139	1510
130.002	1532.5
127.864	1600.5
125.725	1634.5
123.587	1695
121.447	1727
119.307	1781
117.166	1795.5
115.026	1866
112.885	1926
110.743	1975
108.6	1993
106.456	2037.5
104.313	1996.5
102.169	1952
100.023	1870
97.8789	1729.5
95.7328	1548
93.5869	1369
91.4392	1159.5
89.2919	963.5
87.1447	757
84.9959	603.5
