3528.51	231
3527.23	250
3525.95	258
3524.67	258
3523.39	261.5
3522.1	271
3520.82	271
3519.54	264
3518.26	267
3516.97	269.5
3515.69	263
3514.4	274.5
3513.12	271.5
3511.84	263.5
3510.55	279.5
3509.26	277
3507.98	279
3506.69	293
3505.41	275
3504.12	295
3502.83	286
3501.54	288.5
3500.26	297
3498.97	304
3497.68	304.5
3496.39	308.5
3495.1	318
3493.81	311.5
3492.52	319.5
3491.23	327
3489.94	342.5
3488.65	335
3487.36	351.5
3486.07	358
3484.78	362.5
3483.49	365
3482.19	363.5
3480.9	364.5
3479.61	381
3478.31	391.5
3477.02	393
3475.73	399.5
3474.43	387
3473.14	402
3471.84	423
3470.54	392.5
3469.25	384
3467.95	407.5
3466.66	410.5
3465.36	417
3464.06	407.5
3462.76	406.5
3461.46	429.5
3460.17	421
3458.87	407
3457.57	431.5
3456.27	443
3454.97	440.5
3453.67	459
3452.37	423.5
3451.07	457
3449.77	445.5
3448.47	457.5
3447.16	449
3445.86	463.5
3444.56	475
3443.26	490.5
3441.95	494
3440.65	525.5
3439.35	502
3438.04	522
3436.74	520.5
3435.43	528.5
3434.13	539.5
3432.82	564
3431.52	564.5
3430.21	563
3428.9	581.5
3427.6	588
3426.29	595.5
3424.98	619.5
3423.67	598
3422.36	607
3421.06	624
3419.75	636
3418.44	639.5
3417.13	664
3415.82	666.5
3414.51	671.5
3413.2	673.5
3411.88	674.5
3410.57	689
3409.26	705
3407.95	696.5
3406.64	697
3405.32	705.5
3404.01	720.5
3402.7	725
3401.38	733.5
3400.07	728.5
3398.75	737.5
3397.44	759.5
3396.12	733.5
3394.81	777
3393.49	767
3392.18	750
3390.86	790
3389.54	788
3388.23	794
3386.91	794
3385.59	791.5
3384.27	810.5
3382.95	825.5
3381.63	804.5
3380.31	829
3378.99	842
3377.67	870.5
3376.35	869.5
3375.03	868
3373.71	868
3372.39	896
3371.07	906.5
3369.75	900
3368.42	907
3367.1	930
3365.78	898.5
3364.45	929.5
3363.13	927
3361.81	942.5
3360.48	935
3359.16	942.5
3357.83	936
3356.51	936
3355.18	957.5
3353.85	946
3352.53	962
3351.2	968
3349.87	1009.5
3348.54	994.5
3347.22	989.5
3345.89	994
3344.56	981.5
3343.23	974
3341.9	992
3340.57	1006
3339.24	1030.5
3337.91	1011
3336.58	1014.5
3335.25	1029
3333.92	1025
3332.58	1034
3331.25	1025
3329.92	1046
3328.59	1019
3327.25	1036
3325.92	1049.5
3324.58	1088
3323.25	1071
3321.92	1097.5
3320.58	1074.5
3319.25	1079.5
3317.91	1077.5
3316.57	1106
3315.24	1102.5
3313.9	1139
3312.56	1106.5
3311.23	1127.5
3309.89	1114
3308.55	1117.5
3307.21	1126
3305.87	1152
3304.53	1119
3303.19	1140.5
3301.85	1135
3300.51	1140
3299.17	1165.5
3297.83	1162.5
3296.49	1186.5
3295.15	1167
3293.81	1174
3292.46	1194
3291.12	1187.5
3289.78	1186
3288.43	1194.5
3287.09	1165.5
3285.75	1201.5
3284.4	1226.5
3283.06	1190
3281.71	1220
3280.37	1214
3279.02	1223
3277.67	1225
3276.33	1231.5
3274.98	1248.5
3273.63	1268.5
3272.28	1256.5
3270.94	1281.5
3269.59	1296
3268.24	1314
3266.89	1323
3265.54	1351.5
3264.19	1344
3262.84	1348
3261.49	1368.5
3260.14	1429
3258.79	1406
3257.44	1454
3256.08	1498
3254.73	1466
3253.38	1540.5
3252.03	1544.5
3250.67	1607.5
3249.32	1638
3247.96	1680
3246.61	1725.5
3245.26	1747.5
3243.9	1796
3242.54	1867
3241.19	1956
3239.83	1937.5
3238.48	2007
3237.12	2080.5
3235.76	2101.5
3234.41	2134
3233.05	2173
3231.69	2258
3230.33	2281
3228.97	2374
3227.61	2418
3226.25	2451
3224.89	2466.5
3223.53	2502
3222.17	2517
3220.81	2588.5
3219.45	2631
3218.09	2640
3216.72	2673
3215.36	2688
3214	2718.5
3212.63	2711
3211.27	2762.5
3209.91	2783
3208.54	2809
3207.18	2807.5
3205.81	2853.5
3204.45	2849.5
3203.08	2856
3201.71	2827.5
3200.35	2883
3198.98	2904
3197.61	2933
3196.25	2955
3194.88	2918
3193.51	2959.5
3192.14	2966
3190.77	2972
3189.4	2990
3188.03	3005
3186.66	3045
3185.29	3054.5
3183.92	3029.5
3182.55	3066
3181.18	3082
3179.81	3126
3178.44	3136.5
3177.06	3172.5
3175.69	3185
3174.32	3219.5
3172.94	3205.5
3171.57	3237.5
3170.2	3271.5
3168.82	3254
3167.45	3331
3166.07	3282.5
3164.69	3319.5
3163.32	3346.5
3161.94	3386
3160.56	3409.5
3159.19	3460.5
3157.81	3444.5
3156.43	3498
3155.05	3527
3153.67	3621
3152.3	3575
3150.92	3618.5
3149.54	3615.5
3148.16	3701.5
3146.78	3657.5
3145.4	3697
3144.01	3714.5
3142.63	3726
3141.25	3782
3139.87	3772.5
3138.49	3826
3137.1	3908.5
3135.72	3827.5
3134.34	3919.5
3132.95	3961
3131.57	3946.5
3130.18	3982
3128.8	3970
3127.41	3976.5
3126.03	4008.5
3124.64	4113
3123.25	4072.5
3121.87	4168
3120.48	4189
3119.09	4194
3117.7	4212.5
3116.32	4213.5
3114.93	4272.5
3113.54	4266
3112.15	4268.5
3110.76	4292
3109.37	4329
3107.98	4304.5
3106.59	4358
3105.2	4333
3103.8	4462
3102.41	4426.5
3101.02	4436.5
3099.63	4418.5
3098.23	4501.5
3096.84	4465.5
3095.45	4519
3094.05	4554
3092.66	4540
3091.26	4527.5
3089.87	4581.5
3088.47	4596
3087.08	4631
3085.68	4600
3084.28	4633.5
3082.89	4620
3081.49	4672.5
3080.09	4696
3078.69	4676.5
3077.3	4683.5
3075.9	4723
3074.5	4746
3073.1	4736
3071.7	4729.5
3070.3	4768.5
3068.9	4720.5
3067.5	4745
3066.09	4769.5
3064.69	4786.5
3063.29	4731
3061.89	4784.5
3060.48	4778.5
3059.08	4866
3057.68	4817
3056.27	4866
3054.87	4846.5
3053.46	4894
3052.06	4933.5
3050.65	4892.5
3049.25	4954.5
3047.84	4953.5
3046.44	4862
3045.03	4996.5
3043.62	5026
3042.21	4997
3040.81	5018
3039.4	5033
3037.99	5022
3036.58	5098
3035.17	5108.5
3033.76	5103.5
3032.35	5102
3030.94	5088
3029.53	5137.5
3028.12	5132
3026.71	5055
3025.29	5176.5
3023.88	5139.5
3022.47	5156
3021.06	5163.5
3019.64	5217.5
3018.23	5154
3016.82	5171
3015.4	5140.5
3013.99	5204
3012.57	5198
3011.15	5220
3009.74	5177
3008.32	5248
3006.91	5226
3005.49	5254.5
3004.07	5247.5
3002.65	5306
3001.24	5295.5
2999.82	5343.5
2998.4	5391
2996.98	5448
2995.56	5385.5
2994.14	5425.5
2992.72	5433.5
2991.3	5465
2989.88	5478
2988.46	5506
2987.03	5572.5
2985.61	5651
2984.19	5674
2982.77	5674.5
2981.34	5644
2979.92	5762
2978.49	5823
2977.07	5794
2975.65	5845.5
2974.22	5863
2972.79	5824
2971.37	5858.5
2969.94	5906.5
2968.52	5892.5
2967.09	5886.5
2965.66	5922
2964.23	5941.5
2962.81	5960
2961.38	5945
2959.95	5985.5
2958.52	6006
2957.09	5972
2955.66	6011
2954.23	5931
2952.8	5985
2951.37	6033
2949.94	6041.5
2948.5	6079
2947.07	6040.5
2945.64	6091
2944.21	6075
2942.77	6088
2941.34	6072
2939.91	6122
2938.47	6166
2937.04	6158.5
2935.6	6141
2934.17	6139
2932.73	6188.5
2931.29	6224.5
2929.86	6248.5
2928.42	6270.5
2926.98	6285
2925.55	6311
2924.11	6299.5
2922.67	6350
2921.23	6292.5
2919.79	6263
2918.35	6244
2916.91	6352
2915.47	6301
2914.03	6329
2912.59	6358
2911.15	6333.5
2909.71	6296.5
2908.26	6373
2906.82	6361
2905.38	6386
2903.94	6387
2902.49	6396.5
2901.05	6477
2899.6	6439.5
2898.16	6470
2896.71	6443
2895.27	6421
2893.82	6485
2892.38	6480
2890.93	6560.5
2889.48	6484.5
2888.03	6573.5
2886.59	6517.5
2885.14	6478.5
2883.69	6522.5
2882.24	6573.5
2880.79	6619
2879.34	6580.5
2877.89	6579.5
2876.44	6599
2874.99	6601.5
2873.54	6491
2872.09	6578
2870.64	6555.5
2869.18	6629.5
2867.73	6679.5
2866.28	6603.5
2864.83	6568
2863.37	6587
2861.92	6600.5
2860.46	6521.5
2859.01	6687.5
2857.55	6595.5
2856.1	6688.5
2854.64	6695.5
2853.19	6672.5
2851.73	6643
2850.27	6644.5
2848.81	6706
2847.36	6663.5
2845.9	6672
2844.44	6683.5
2842.98	6675.5
2841.52	6627.5
2840.06	6636
2838.6	6662.5
2837.14	6640
2835.68	6627
2834.22	6596
2832.76	6644.5
2831.3	6599
2829.83	6596
2828.37	6582
2826.91	6572.5
2825.44	6655
2823.98	6637.5
2822.52	6600
2821.05	6547
2819.59	6564
2818.12	6577
2816.66	6558
2815.19	6558.5
2813.72	6565
2812.26	6546
2810.79	6538
2809.32	6528.5
2807.85	6531.5
2806.38	6513
2804.92	6517.5
2803.45	6511
2801.98	6489.5
2800.51	6569
2799.04	6504
2797.57	6545
2796.1	6464.5
2794.62	6520
2793.15	6451
2791.68	6451
2790.21	6503.5
2788.73	6504
2787.26	6532
2785.79	6461
2784.31	6412
2782.84	6494
2781.36	6446.5
2779.89	6482
2778.41	6452.5
2776.94	6526.5
2775.46	6535
2773.99	6518.5
2772.51	6497
2771.03	6549
2769.55	6587.5
2768.07	6626.5
2766.6	6548.5
2765.12	6600
2763.64	6641
2762.16	6582
2760.68	6530.5
2759.2	6575.5
2757.72	6597
2756.24	6571
2754.75	6572.5
2753.27	6548
2751.79	6543
2750.31	6570
2748.82	6524
2747.34	6509.5
2745.86	6520.5
2744.37	6532.5
2742.89	6507.5
2741.4	6559
2739.92	6502
2738.43	6488
2736.94	6457.5
2735.46	6594.5
2733.97	6533
2732.48	6527
2731	6462.5
2729.51	6512.5
2728.02	6517.5
2726.53	6435.5
2725.04	6381.5
2723.55	6482.5
2722.06	6475
2720.57	6414.5
2719.08	6435.5
2717.59	6465
2716.1	6504.5
2714.61	6438
2713.11	6498
2711.62	6391
2710.13	6490.5
2708.64	6402.5
2707.14	6398.5
2705.65	6453.5
2704.15	6419.5
2702.66	6432.5
2701.16	6459
2699.67	6410.5
2698.17	6383.5
2696.67	6347.5
2695.18	6373
2693.68	6394.5
2692.18	6355
2690.69	6356
2689.19	6325
2687.69	6311.5
2686.19	6323.5
2684.69	6266.5
2683.19	6276.5
2681.69	6247
2680.19	6244.5
2678.69	6255
2677.19	6246.5
2675.68	6192.5
2674.18	6254
2672.68	6191
2671.18	6180
2669.67	6206.5
2668.17	6179.5
2666.66	6206
2665.16	6191
2663.66	6160.5
2662.15	6140.5
2660.64	6150
2659.14	6158
2657.63	6104
2656.13	6142
2654.62	6063
2653.11	6113
2651.6	6058
2650.09	6111
2648.58	6037.5
2647.08	6098
2645.57	6028.5
2644.06	6079.5
2642.55	6022
2641.04	6075
2639.52	6031.5
2638.01	6007
2636.5	5962
2634.99	5946.5
2633.48	5927
2631.96	5923
2630.45	5897.5
2628.94	5905
2627.42	5887
2625.91	5868.5
2624.39	5923
2622.88	5873.5
2621.36	5934.5
2619.85	5846.5
2618.33	5887
2616.81	5823.5
2615.3	5847.5
2613.78	5833
2612.26	5869
2610.74	5803
2609.22	5753.5
2607.7	5765
2606.18	5825
2604.66	5698
2603.14	5703
2601.62	5646.5
2600.1	5613
2598.58	5629
2597.06	5555
2595.54	5661
2594.01	5627.5
2592.49	5553.5
2590.97	5651
2589.44	5642
2587.92	5633.5
2586.39	5605
2584.87	5541
2583.34	5586
2581.82	5581.5
2580.29	5570
2578.76	5594
2577.24	5529.5
2575.71	5549
2574.18	5527
2572.65	5572
2571.13	5560.5
2569.6	5545.5
2568.07	5533.5
2566.54	5459.5
2565.01	5473
2563.48	5572.5
2561.95	5518.5
2560.42	5529
2558.88	5481.5
2557.35	5444
2555.82	5465.5
2554.29	5389.5
2552.75	5404.5
2551.22	5423
2549.69	5379
2548.15	5352
2546.62	5365.5
2545.08	5378.5
2543.55	5351
2542.01	5336
2540.47	5294
2538.94	5314
2537.4	5298.5
2535.86	5280.5
2534.33	5296
2532.79	5256.5
2531.25	5265.5
2529.71	5175
2528.17	5167
2526.63	5198
2525.09	5198
2523.55	5195.5
2522.01	5166
2520.47	5140
2518.92	5089.5
2517.38	5109
2515.84	5119.5
2514.3	5036.5
2512.75	5025
2511.21	5029
2509.67	5002.5
2508.12	5026
2506.58	4948
2505.03	5017
2503.49	5009
2501.94	4951.5
2500.39	4971
2498.85	5004.5
2497.3	4891
2495.75	4917
2494.2	4875
2492.65	4859
2491.11	4840.5
2489.56	4772.5
2488.01	4781.5
2486.46	4818
2484.91	4803.5
2483.36	4762
2481.8	4799
2480.25	4796
2478.7	4675
2477.15	4767
2475.6	4730.5
2474.04	4663
2472.49	4698
2470.93	4657.5
2469.38	4607
2467.83	4614
2466.27	4573
2464.71	4595.5
2463.16	4526.5
2461.6	4472
2460.05	4517
2458.49	4489
2456.93	4444.5
2455.37	4428
2453.81	4463.5
2452.26	4452
2450.7	4366
2449.14	4341
2447.58	4370.5
2446.02	4321.5
2444.46	4272.5
2442.9	4268
2441.33	4281
2439.77	4293.5
2438.21	4237.5
2436.65	4215
2435.08	4272.5
2433.52	4199.5
2431.96	4259
2430.39	4178.5
2428.83	4200.5
2427.26	4252
2425.7	4206.5
2424.13	4213
2422.56	4127
2421	4192
2419.43	4147.5
2417.86	4155
2416.3	4097.5
2414.73	4120.5
2413.16	4106
2411.59	4119
2410.02	4123.5
2408.45	4101
2406.88	4089.5
2405.31	4059
2403.74	4110
2402.17	4102
2400.6	4104
2399.02	4090.5
2397.45	4045
2395.88	4066
2394.3	4034.5
2392.73	4052.5
2391.16	3956.5
2389.58	4041
2388.01	3985.5
2386.43	3989.5
2384.86	4007
2383.28	3931.5
2381.7	4009
2380.13	3975
2378.55	3979
2376.97	3995.5
2375.39	4000
2373.81	3969
2372.23	3922
2370.65	3942
2369.07	3911.5
2367.49	3956.5
2365.91	3911
2364.33	3896
2362.75	3884
2361.17	3901.5
2359.59	3872
2358.01	3851
2356.42	3910.5
2354.84	3828.5
2353.25	3793.5
2351.67	3822
2350.09	3849
2348.5	3832
2346.92	3798.5
2345.33	3829
2343.74	3786.5
2342.16	3785.5
2340.57	3853
2338.98	3782.5
2337.39	3780.5
2335.81	3736.5
2334.22	3749
2332.63	3744.5
2331.04	3705
2329.45	3677.5
2327.86	3711.5
2326.27	3732
2324.68	3698.5
2323.09	3654
2321.49	3676
2319.9	3615
2318.31	3609
2316.72	3549
2315.12	3608.5
2313.53	3572.5
2311.93	3556.5
2310.34	3573.5
2308.74	3540.5
2307.15	3569
2305.55	3560.5
2303.96	3528
2302.36	3496.5
2300.76	3505
2299.17	3477.5
2297.57	3470.5
2295.97	3476
2294.37	3467.5
2292.77	3501.5
2291.17	3389
2289.57	3402.5
2287.97	3436.5
2286.37	3419
2284.77	3404
2283.17	3394.5
2281.57	3382
2279.96	3357
2278.36	3418
2276.76	3397
2275.15	3396
2273.55	3406
2271.95	3376
2270.34	3373
2268.74	3324.5
2267.13	3289
2265.52	3271
2263.92	3287.5
2262.31	3227.5
2260.7	3235.5
2259.1	3254.5
2257.49	3244.5
2255.88	3248.5
2254.27	3224
2252.66	3216
2251.05	3192.5
2249.44	3247
2247.83	3269.5
2246.22	3253
2244.61	3212
2243	3196.5
2241.39	3195
2239.77	3165.5
2238.16	3189.5
2236.55	3165
2234.93	3128
2233.32	3069.5
2231.7	3074.5
2230.09	3040.5
2228.47	3090
2226.86	3064.5
2225.24	3076.5
2223.63	3094
2222.01	3063.5
2220.39	3032.5
2218.77	3016
2217.16	3009
2215.54	2991.5
2213.92	2945
2212.3	2968
2210.68	2987
2209.06	2894.5
2207.44	2888
2205.82	2921.5
2204.19	2930
2202.57	2885
2200.95	2896.5
2199.33	2845
2197.7	2912.5
2196.08	2857.5
2194.46	2850
2192.83	2862.5
2191.21	2829
2189.58	2832.5
2187.96	2845
2186.33	2827.5
2184.7	2801
2183.08	2810.5
2181.45	2811
2179.82	2781
2178.19	2778.5
2176.57	2764.5
2174.94	2735
2173.31	2752.5
2171.68	2722.5
2170.05	2738
2168.42	2704
2166.79	2701.5
2165.16	2718.5
2163.52	2653.5
2161.89	2684
2160.26	2626
2158.63	2656
2156.99	2625.5
2155.36	2603.5
2153.73	2655
2152.09	2565
2150.46	2571
2148.82	2565.5
2147.18	2611
2145.55	2555
2143.91	2565.5
2142.27	2526.5
2140.64	2563
2139	2539.5
2137.36	2542.5
2135.72	2487.5
2134.08	2483.5
2132.44	2424
2130.8	2460
2129.16	2462
2127.52	2451
2125.88	2432.5
2124.24	2391
2122.6	2355.5
2120.95	2393
2119.31	2336
2117.67	2383
2116.02	2337.5
2114.38	2340
2112.74	2331
2111.09	2346.5
2109.45	2309.5
2107.8	2291
2106.15	2302.5
2104.51	2275
2102.86	2279
2101.21	2279.5
2099.56	2297
2097.92	2303.5
2096.27	2230.5
2094.62	2291
2092.97	2279.5
2091.32	2230
2089.67	2255.5
2088.02	2243.5
2086.37	2250
2084.72	2278
2083.06	2251.5
2081.41	2222
2079.76	2224
2078.1	2214
2076.45	2194.5
2074.8	2235
2073.14	2197
2071.49	2218
2069.83	2188
2068.18	2200
2066.52	2213
2064.86	2172.5
2063.21	2156
2061.55	2126
2059.89	2165
2058.23	2136.5
2056.57	2166.5
2054.92	2176.5
2053.26	2125
2051.6	2116.5
2049.94	2108
2048.27	2113
2046.61	2094
2044.95	2097.5
2043.29	2104
2041.63	2041
2039.97	2048.5
2038.3	2064.5
2036.64	2018
2034.97	2010.5
2033.31	2039.5
2031.64	1993.5
2029.98	1999.5
2028.31	1982.5
2026.65	1981
2024.98	1954
2023.31	1953.5
2021.65	1929
2019.98	1891.5
2018.31	1938.5
2016.64	1884
2014.97	1932.5
2013.3	1909
2011.63	1896
2009.96	1877
2008.29	1893
2006.62	1862.5
2004.95	1867
2003.28	1847
2001.6	1883
1999.93	1841.5
1998.26	1852
1996.58	1851
1994.91	1853
1993.24	1838.5
1991.56	1810.5
1989.89	1819.5
1988.21	1833
1986.53	1785.5
1984.86	1797.5
1983.18	1823
1981.5	1762.5
1979.82	1744.5
1978.15	1780.5
1976.47	1767.5
1974.79	1788
1973.11	1755
1971.43	1748.5
1969.75	1745.5
1968.07	1721
1966.38	1669.5
1964.7	1715
1963.02	1709.5
1961.34	1708
1959.66	1648.5
1957.97	1690
1956.29	1677.5
1954.6	1674.5
1952.92	1672.5
1951.23	1635
1949.55	1627.5
1947.86	1619.5
1946.18	1614.5
1944.49	1637.5
1942.8	1605
1941.11	1574
1939.43	1601.5
1937.74	1586.5
1936.05	1592
1934.36	1582
1932.67	1592.5
1930.98	1573
1929.29	1553.5
1927.6	1539
1925.91	1522.5
1924.21	1535.5
1922.52	1516.5
1920.83	1501
1919.14	1541
1917.44	1492
1915.75	1507
1914.05	1516.5
1912.36	1477
1910.66	1500
1908.97	1516
1907.27	1474.5
1905.58	1475
1903.88	1511.5
1902.18	1477
1900.48	1453.5
1898.79	1455.5
1897.09	1413
1895.39	1461
1893.69	1427.5
1891.99	1405
1890.29	1388
1888.59	1400.5
1886.89	1416
1885.18	1379
1883.48	1391
1881.78	1355
1880.08	1366.5
1878.37	1335.5
1876.67	1362.5
1874.96	1336
1873.26	1323
1871.55	1321
1869.85	1319
1868.14	1328
1866.44	1327.5
1864.73	1283
1863.02	1314.5
1861.32	1277
1859.61	1274
1857.9	1297.5
1856.19	1263.5
1854.48	1248
1852.77	1278.5
1851.06	1288
1849.35	1250.5
1847.64	1249
1845.93	1267.5
1844.21	1235
1842.5	1259.5
1840.79	1253
1839.08	1247
1837.36	1231
1835.65	1226
1833.93	1238.5
1832.22	1221.5
1830.5	1209
1828.79	1204
1827.07	1186.5
1825.36	1176
1823.64	1201.5
1821.92	1179
1820.2	1164
1818.48	1165
1816.77	1116.5
1815.05	1147.5
1813.33	1160
1811.61	1128
1809.89	1130.5
1808.16	1137.5
1806.44	1131
1804.72	1125
1803	1119.5
1801.28	1109.5
1799.55	1104
1797.83	1087.5
1796.11	1081.5
1794.38	1076
1792.66	1085.5
1790.93	1087.5
1789.21	1071
1787.48	1082
1785.75	1083
1784.03	1054.5
1782.3	1086.5
1780.57	1061.5
1778.84	1039
1777.11	1027.5
1775.38	1032
1773.66	1035.5
1771.93	1044
1770.19	1072
1768.46	1047
1766.73	1026
1765	1005
1763.27	1006.5
1761.54	1031
1759.8	1028
1758.07	1034
1756.34	1040
1754.6	1046.5
1752.87	1031.5
1751.13	1011.5
1749.4	1017
1747.66	1039
1745.92	1012
1744.19	1031.5
1742.45	1013.5
1740.71	1036
1738.97	1011
1737.23	1009
1735.49	979.5
1733.75	988.5
1732.01	970.5
1730.27	984.5
1728.53	947
1726.79	938.5
1725.05	959.5
1723.31	947
1721.57	940
1719.82	934.5
1718.08	938.5
1716.34	915.5
1714.59	930.5
1712.85	919
1711.1	904.5
1709.36	900
1707.61	897
1705.86	896
1704.12	909.5
1702.37	896
1700.62	874.5
1698.87	861.5
1697.12	863
1695.37	861.5
1693.62	869
1691.87	852.5
1690.12	859
1688.37	843
1686.62	843.5
1684.87	852
1683.12	838.5
1681.36	860.5
1679.61	841
1677.86	819.5
1676.1	840
1674.35	831
1672.59	834
1670.84	829
1669.08	865
1667.33	869
1665.57	865
1663.81	889.5
1662.06	911.5
1660.3	924.5
1658.54	898.5
1656.78	916
1655.02	897.5
1653.26	873
1651.5	872.5
1649.74	856.5
1647.98	837
1646.22	835
1644.46	799
1642.7	802
1640.93	809.5
1639.17	783.5
1637.41	781
1635.64	788.5
1633.88	753.5
1632.11	752
1630.35	757
1628.58	759.5
1626.81	762.5
1625.05	752
1623.28	717
1621.51	742
1619.75	737
1617.98	732
1616.21	726
1614.44	738.5
1612.67	722.5
1610.9	726
1609.13	731
1607.36	721.5
1605.58	718.5
1603.81	723.5
1602.04	710
1600.27	712.5
1598.49	694.5
1596.72	724
1594.95	694.5
1593.17	691
1591.4	683.5
1589.62	691
1587.84	698.5
1586.07	695.5
1584.29	696
1582.51	699.5
1580.74	692.5
1578.96	692.5
1577.18	671
1575.4	670
1573.62	690
1571.84	658.5
1570.06	660.5
1568.28	629.5
1566.5	636.5
1564.72	655.5
1562.93	650
1561.15	655
1559.37	643.5
1557.58	656.5
1555.8	657.5
1554.02	641.5
1552.23	617.5
1550.45	646
1548.66	630.5
1546.87	641.5
1545.09	611.5
1543.3	622
1541.51	622.5
1539.72	604.5
1537.94	593
1536.15	609
1534.36	598
1532.57	609.5
1530.78	593.5
1528.99	608.5
1527.2	582
1525.4	597.5
1523.61	578
1521.82	590
1520.03	580
1518.23	577.5
1516.44	590
1514.65	568
1512.85	574
1511.06	577.5
1509.26	591
1507.46	562.5
1505.67	574
1503.87	571.5
1502.07	581.5
1500.28	585.5
1498.48	572.5
1496.68	565
1494.88	577.5
1493.08	567.5
1491.28	575.5
1489.48	575.5
1487.68	580.5
1485.88	584.5
1484.08	589
1482.27	601.5
1480.47	596.5
1478.67	616
1476.86	587
1475.06	604.5
1473.25	621
1471.45	630.5
1469.64	661.5
1467.84	685
1466.03	672.5
1464.23	701.5
1462.42	711
1460.61	712.5
1458.8	727.5
1456.99	730.5
1455.18	745
1453.37	760
1451.56	761
1449.75	786
1447.94	789.5
1446.13	794.5
1444.32	813.5
1442.51	817.5
1440.7	807.5
1438.88	796
1437.07	769.5
1435.26	720.5
1433.44	699
1431.63	649.5
1429.81	608
1427.99	593.5
1426.18	585
1424.36	568
1422.54	553.5
1420.73	545.5
1418.91	546
1417.09	532.5
1415.27	524.5
1413.45	511
1411.63	500
1409.81	495
1407.99	481
1406.17	485.5
1404.35	487.5
1402.53	485.5
1400.7	493.5
1398.88	482.5
1397.06	473
1395.23	476
1393.41	469
1391.58	464.5
1389.76	467
1387.93	476
1386.11	469.5
1384.28	484
1382.45	445
1380.62	447
1378.8	455
1376.97	472
1375.14	479
1373.31	460.5
1371.48	468
1369.65	458
1367.82	452
1365.99	461
1364.16	448.5
1362.32	442.5
1360.49	450.5
1358.66	446.5
1356.82	444.5
1354.99	434
1353.16	433.5
1351.32	458
1349.48	451
1347.65	426.5
1345.81	454.5
1343.98	451
1342.14	436
1340.3	449.5
1338.46	423.5
1336.62	439.5
1334.79	439.5
1332.95	446.5
1331.11	456
1329.27	452
1327.42	453
1325.58	466.5
1323.74	478.5
1321.9	484
1320.06	472
1318.21	488.5
1316.37	510
1314.53	520.5
1312.68	540
1310.84	540.5
1308.99	565.5
1307.15	572
1305.3	579
1303.45	600
1301.61	601
1299.76	583.5
1297.91	574.5
1296.06	561.5
1294.21	525.5
1292.36	524
1290.51	493.5
1288.66	463
1286.81	465
1284.96	462.5
1283.11	468.5
1281.26	462.5
1279.4	481.5
1277.55	469
1275.7	462
1273.84	482
1271.99	467
1270.13	465.5
1268.28	463.5
1266.42	458
1264.56	458
1262.71	456.5
1260.85	473
1258.99	450.5
1257.13	449
1255.27	431.5
1253.41	417
1251.56	418
1249.7	407.5
1247.83	412
1245.97	396
1244.11	407.5
1242.25	390
1240.39	375.5
1238.52	375.5
1236.66	370
1234.8	367
1232.93	365
1231.07	380.5
1229.2	361.5
1227.34	360.5
1225.47	357.5
1223.6	353.5
1221.74	351
1219.87	357
1218	355
1216.13	357.5
1214.26	333.5
1212.39	328
1210.53	349
1208.65	333
1206.78	349.5
1204.91	356
1203.04	347
1201.17	337
1199.3	332
1197.42	340
1195.55	336.5
1193.68	335
1191.8	325
1189.93	321
1188.05	331
1186.17	329
1184.3	322.5
1182.42	322
1180.54	330.5
1178.67	330.5
1176.79	335.5
1174.91	321
1173.03	317.5
1171.15	323.5
1169.27	329
1167.39	315.5
1165.51	328
1163.63	316
1161.75	326.5
1159.86	319
1157.98	308
1156.1	316
1154.21	308.5
1152.33	322
1150.44	331
1148.56	306
1146.67	337.5
1144.79	319.5
1142.9	325
1141.01	324
1139.12	319
1137.24	341.5
1135.35	346.5
1133.46	349
1131.57	375
1129.68	379.5
1127.79	370
1125.9	346.5
1124.01	370
1122.12	359.5
1120.22	365.5
1118.33	359.5
1116.44	351.5
1114.54	334
1112.65	348.5
1110.75	350.5
1108.86	351
1106.96	357
1105.07	356
1103.17	356.5
1101.27	368.5
1099.38	376.5
1097.48	392
1095.58	395
1093.68	408.5
1091.78	394
1089.88	401
1087.98	413.5
1086.08	413
1084.18	423
1082.28	412
1080.38	424
1078.47	416
1076.57	427.5
1074.67	403
1072.76	408.5
1070.86	388
1068.95	403.5
1067.05	428
1065.14	427
1063.24	413.5
1061.33	403
1059.42	383
1057.51	360.5
1055.6	356
1053.7	346
1051.79	333.5
1049.88	333.5
1047.97	334
1046.06	331
1044.14	331.5
1042.23	329
1040.32	332
1038.41	319
1036.5	335.5
1034.58	340.5
1032.67	346
1030.75	330.5
1028.84	332.5
1026.92	333.5
1025.01	340
1023.09	331
1021.17	355
1019.26	323
1017.34	342.5
1015.42	340
1013.5	350.5
1011.58	333.5
1009.66	341.5
1007.74	337.5
1005.82	339
1003.9	345.5
1001.98	355.5
1000.06	353
998.134	354.5
996.212	353
994.288	359
992.364	392.5
990.44	379
988.515	410
986.589	400.5
984.663	444
982.737	425.5
980.81	441
978.883	464
976.955	460
975.027	466.5
973.098	483
971.169	467
969.239	461.5
967.308	463.5
965.378	447
963.447	464.5
961.516	480
959.583	487.5
957.65	478.5
955.718	494.5
953.784	481
951.85	479
949.916	497
947.981	505.5
946.045	512.5
944.109	528
942.173	512
940.236	510
938.298	508.5
936.36	501
934.422	471
932.484	447
930.544	440.5
928.604	407.5
926.664	390.5
924.724	366.5
922.782	372
920.84	363.5
918.898	342.5
916.955	371
915.012	354
913.068	336.5
911.124	350.5
909.18	347.5
907.235	358
905.289	355.5
903.343	347
901.397	363
899.45	343
897.502	362
895.554	366
893.605	378.5
891.657	381.5
889.707	389.5
887.758	387
885.807	364.5
883.856	386
881.905	372
879.953	366
878.001	368.5
876.048	396
874.094	398.5
872.14	375
870.186	372.5
868.232	398.5
866.276	386.5
864.321	368.5
862.365	387
860.408	367
858.451	370
856.493	369
854.535	370
852.576	369
850.617	359
848.658	363.5
846.698	357
844.737	371.5
842.776	367
840.814	353
838.852	349
836.89	343.5
834.927	334
832.963	337
830.999	313
829.035	323.5
827.07	314
825.105	318.5
823.139	309.5
821.172	310
819.206	285
817.238	291.5
815.27	291
813.301	278
811.333	296
809.363	286
807.394	278.5
805.424	272.5
803.453	274.5
801.482	253.5
799.509	276.5
797.538	263.5
795.565	262
793.592	257
791.618	251.5
789.643	259.5
787.669	265.5
785.693	250
783.718	268
781.742	236
779.765	253.5
777.788	256.5
775.811	252
773.832	247
771.853	259.5
769.875	255.5
767.895	248
765.915	242.5
763.934	256.5
761.953	250
759.972	247
757.99	255
756.007	249.5
754.024	247.5
752.041	256.5
750.056	243
748.072	251
746.087	250.5
744.102	259
742.116	240.5
740.13	256
738.143	240
736.155	260.5
734.167	251.5
732.179	249.5
730.19	247
728.2	256
726.21	248.5
724.22	246
722.229	246
720.237	261.5
718.246	252
716.253	243
714.26	260
712.267	248.5
710.273	244
708.279	235.5
706.284	250
704.289	238.5
702.293	249
700.296	243
698.3	239.5
696.303	248
694.305	249
692.307	239
690.307	250
688.308	237
686.309	251.5
684.308	251.5
682.308	260
680.306	260
678.304	252.5
676.302	262
674.3	265
672.296	258
670.293	274
668.289	264.5
666.284	250.5
664.278	273.5
662.273	260.5
660.266	260
658.26	253.5
656.252	258
654.244	257
652.237	259.5
650.227	255
648.218	274.5
646.209	266
644.198	270.5
642.188	261.5
640.177	272.5
638.165	271
636.153	282
634.14	261
632.128	274
630.113	268.5
628.099	289.5
626.085	281
624.07	271
622.054	287.5
620.038	304
618.021	286.5
616.004	281.5
613.986	282
611.968	276
609.949	285.5
607.93	279.5
605.911	290
603.891	273.5
601.87	272.5
599.848	268
597.827	283
595.805	278
593.782	285.5
591.759	267.5
589.735	278
587.711	285.5
585.687	264.5
583.661	259.5
581.636	259.5
579.609	266.5
577.583	287
575.555	280
573.527	277
571.5	287.5
569.471	282
567.441	281
565.412	296
563.382	290.5
561.351	295
559.32	291.5
557.289	315.5
555.257	302
553.223	327
551.19	327
549.157	350.5
547.122	353.5
545.088	404
543.053	416
541.017	444
538.981	489
536.943	575.5
534.907	711.5
532.869	925
530.831	1371
528.792	2015.5
526.752	3179
524.713	4588
522.673	5686.5
520.632	5518
518.591	4456.5
516.549	3151
514.507	2096.5
512.464	1380
510.42	956
508.377	705
506.332	571
504.288	504
502.242	463
500.196	417.5
498.15	392
496.104	379.5
494.056	378.5
492.008	369
489.96	377.5
487.911	351
485.862	350
483.812	345
481.761	320
479.71	336.5
477.659	341.5
475.607	330
473.555	334
471.502	322.5
469.448	327.5
467.395	327.5
465.34	318
463.285	307.5
461.23	323.5
459.174	327.5
457.118	316.5
455.061	339
453.003	331
450.945	333.5
448.887	339
446.828	325
444.768	346.5
442.708	364.5
440.647	367
438.587	352
436.525	364
434.463	345.5
432.4	360
430.337	369.5
428.274	365
426.21	363
424.145	362.5
422.079	364.5
420.014	354
417.948	370
415.882	372.5
413.814	351
411.746	371
409.679	359.5
407.609	375.5
405.54	368.5
403.47	379
401.401	383.5
399.329	370
397.258	364
395.187	384
393.114	384.5
391.041	380.5
388.968	381.5
386.895	386.5
384.82	383
382.745	378
380.67	374.5
378.594	394.5
376.517	370
374.44	375
372.363	398
370.286	395
368.207	401
366.128	404
364.049	406.5
361.969	413.5
359.888	387.5
357.807	420.5
355.725	415
353.643	411
351.561	433
349.477	435.5
347.394	421
345.31	419
343.226	435
341.141	444
339.055	438.5
336.968	459
334.882	446
332.795	439.5
330.707	459.5
328.618	470
326.53	481
324.44	497
322.351	494
320.26	508.5
318.17	516
316.078	541.5
313.987	562.5
311.895	596.5
309.802	622
307.708	620.5
305.614	632
303.52	640.5
301.425	637
299.329	620.5
297.233	600
295.137	572
293.039	577.5
290.942	557
288.844	544
286.745	522
284.647	542.5
282.546	547
280.446	537
278.346	526
276.245	546
274.143	504.5
272.041	514
269.939	516.5
267.835	497.5
265.731	533.5
263.627	502
261.522	533
259.417	528.5
257.311	523.5
255.204	519
253.098	540
250.99	528
248.882	544.5
246.774	539.5
244.664	548
242.555	554.5
240.445	551.5
238.334	543.5
236.223	571.5
234.112	567
232	576.5
229.888	560
227.775	566
225.661	559.5
223.546	579
221.431	565.5
219.316	577
217.201	577
215.084	576.5
212.967	571
210.85	575.5
208.732	599
206.614	586
204.495	590.5
202.375	601
200.256	572
198.135	598
196.014	590
193.893	585.5
191.771	603
189.648	609
187.525	605
185.401	598
183.277	601.5
181.152	618.5
179.027	596
176.901	620
174.775	633
172.648	637.5
170.521	639
168.393	657.5
166.265	635
164.136	662.5
162.007	686.5
159.876	669
157.746	694.5
155.615	716.5
153.483	713.5
151.351	757.5
149.219	769.5
147.086	765
144.952	787
142.818	831.5
140.684	832.5
138.548	841.5
136.413	890
134.276	893
132.139	930
130.002	931.5
127.864	978
125.725	999
123.587	1023.5
121.447	1037
119.307	1096
117.166	1112.5
115.026	1136
112.885	1186
110.743	1184.5
108.6	1228.5
106.456	1227
104.313	1238
102.169	1228
100.023	1155.5
97.8789	1063.5
95.7328	963.5
93.5869	880.5
91.4392	729
89.2919	619
87.1447	522.5
84.9959	403.5
