3528.51	175
3527.23	157
3525.95	177
3524.67	169
3523.39	191
3522.1	163.5
3520.82	185
3519.54	175
3518.26	179.5
3516.97	198.5
3515.69	161
3514.4	202.5
3513.12	199.5
3511.84	188
3510.55	200
3509.26	196.5
3507.98	163
3506.69	189
3505.41	198
3504.12	169.5
3502.83	148.5
3501.54	198
3500.26	183
3498.97	212
3497.68	181
3496.39	202
3495.1	179.5
3493.81	223
3492.52	184.5
3491.23	198
3489.94	189.5
3488.65	198.5
3487.36	222
3486.07	219
3484.78	227
3483.49	227.5
3482.19	199
3480.9	242
3479.61	240
3478.31	230.5
3477.02	245
3475.73	239
3474.43	234.5
3473.14	225.5
3471.84	237.5
3470.54	253
3469.25	239
3467.95	256.5
3466.66	244
3465.36	260.5
3464.06	292
3462.76	272
3461.46	281
3460.17	263
3458.87	261.5
3457.57	231
3456.27	275.5
3454.97	248
3453.67	269
3452.37	275.5
3451.07	266.5
3449.77	268.5
3448.47	272
3447.16	299
3445.86	306
3444.56	298.5
3443.26	274.5
3441.95	313
3440.65	304.5
3439.35	325
3438.04	324
3436.74	315.5
3435.43	334
3434.13	311.5
3432.82	336.5
3431.52	291
3430.21	346
3428.9	339
3427.6	360
3426.29	343
3424.98	387
3423.67	395
3422.36	345.5
3421.06	371
3419.75	384
3418.44	396
3417.13	358
3415.82	419
3414.51	406.5
3413.2	401
3411.88	432
3410.57	413.5
3409.26	395
3407.95	453
3406.64	404.5
3405.32	410.5
3404.01	436
3402.7	455
3401.38	430
3400.07	420
3398.75	445
3397.44	470
3396.12	464.5
3394.81	443
3393.49	450
3392.18	471
3390.86	474
3389.54	487
3388.23	451
3386.91	481
3385.59	486.5
3384.27	502.5
3382.95	461
3381.63	457
3380.31	514
3378.99	497
3377.67	506
3376.35	557
3375.03	523
3373.71	550.5
3372.39	490
3371.07	495
3369.75	530.5
3368.42	518.5
3367.1	548.5
3365.78	536
3364.45	552
3363.13	547.5
3361.81	554.5
3360.48	555
3359.16	554.5
3357.83	557
3356.51	557.5
3355.18	587.5
3353.85	590
3352.53	569
3351.2	549.5
3349.87	572.5
3348.54	581
3347.22	560
3345.89	602
3344.56	592.5
3343.23	561.5
3341.9	569
3340.57	596
3339.24	593.5
3337.91	570
3336.58	591.5
3335.25	594
3333.92	602
3332.58	597.5
3331.25	579
3329.92	617
3328.59	617.5
3327.25	624
3325.92	631
3324.58	587
3323.25	622
3321.92	621
3320.58	633.5
3319.25	619
3317.91	664.5
3316.57	643
3315.24	623.5
3313.9	658
3312.56	614
3311.23	664
3309.89	665
3308.55	656.5
3307.21	695
3305.87	652.5
3304.53	652
3303.19	690.5
3301.85	659.5
3300.51	689
3299.17	671
3297.83	671
3296.49	697.5
3295.15	684
3293.81	662
3292.46	669
3291.12	690
3289.78	674
3288.43	698
3287.09	685
3285.75	706.5
3284.4	673
3283.06	709
3281.71	699
3280.37	700
3279.02	700
3277.67	720
3276.33	727
3274.98	713
3273.63	738
3272.28	725
3270.94	765
3269.59	729
3268.24	736
3266.89	739
3265.54	737.5
3264.19	757.5
3262.84	775.5
3261.49	758
3260.14	776
3258.79	789.5
3257.44	796
3256.08	801.5
3254.73	822
3253.38	821.5
3252.03	824
3250.67	871.5
3249.32	874.5
3247.96	915
3246.61	909.5
3245.26	934.5
3243.9	946.5
3242.54	968
3241.19	997
3239.83	1023.5
3238.48	1071
3237.12	1101
3235.76	1098
3234.41	1145.5
3233.05	1154.5
3231.69	1193.5
3230.33	1193
3228.97	1216
3227.61	1270
3226.25	1289.5
3224.89	1290
3223.53	1337.5
3222.17	1361.5
3220.81	1405.5
3219.45	1396
3218.09	1410.5
3216.72	1470.5
3215.36	1478.5
3214	1488.5
3212.63	1510.5
3211.27	1572.5
3209.91	1561
3208.54	1545
3207.18	1565.5
3205.81	1611
3204.45	1625.5
3203.08	1629
3201.71	1631
3200.35	1675
3198.98	1665.5
3197.61	1687.5
3196.25	1647.5
3194.88	1673
3193.51	1698
3192.14	1733
3190.77	1720
3189.4	1668.5
3188.03	1741.5
3186.66	1716
3185.29	1759.5
3183.92	1742
3182.55	1764
3181.18	1797.5
3179.81	1801.5
3178.44	1800.5
3177.06	1797
3175.69	1811.5
3174.32	1811
3172.94	1846.5
3171.57	1853
3170.2	1829.5
3168.82	1845
3167.45	1905.5
3166.07	1927
3164.69	1919
3163.32	1953.5
3161.94	1939.5
3160.56	1940.5
3159.19	1997.5
3157.81	1974
3156.43	1980
3155.05	2057
3153.67	2044
3152.3	2096.5
3150.92	2093.5
3149.54	2075.5
3148.16	2065
3146.78	2138
3145.4	2093
3144.01	2160
3142.63	2199
3141.25	2202.5
3139.87	2170
3138.49	2210
3137.1	2202.5
3135.72	2230
3134.34	2250
3132.95	2225
3131.57	2239
3130.18	2263.5
3128.8	2276
3127.41	2349.5
3126.03	2312.5
3124.64	2358.5
3123.25	2370
3121.87	2360
3120.48	2399
3119.09	2413
3117.7	2376.5
3116.32	2471
3114.93	2382.5
3113.54	2434.5
3112.15	2487
3110.76	2448
3109.37	2512
3107.98	2505.5
3106.59	2522
3105.2	2519
3103.8	2499.5
3102.41	2530.5
3101.02	2529
3099.63	2555.5
3098.23	2541
3096.84	2566.5
3095.45	2595
3094.05	2598.5
3092.66	2591.5
3091.26	2629
3089.87	2612.5
3088.47	2629
3087.08	2635.5
3085.68	2648
3084.28	2661
3082.89	2667.5
3081.49	2665
3080.09	2651.5
3078.69	2689.5
3077.3	2674.5
3075.9	2662
3074.5	2682.5
3073.1	2714.5
3071.7	2702.5
3070.3	2730
3068.9	2746
3067.5	2744.5
3066.09	2766
3064.69	2734.5
3063.29	2762.5
3061.89	2761
3060.48	2710.5
3059.08	2751
3057.68	2703.5
3056.27	2832.5
3054.87	2761
3053.46	2821.5
3052.06	2785.5
3050.65	2775
3049.25	2777
3047.84	2836
3046.44	2876
3045.03	2851.5
3043.62	2854.5
3042.21	2912.5
3040.81	2857.5
3039.4	2936
3037.99	2884
3036.58	2883
3035.17	2880.5
3033.76	2918.5
3032.35	2914
3030.94	2953.5
3029.53	2953
3028.12	2919.5
3026.71	2914.5
3025.29	2928.5
3023.88	2974
3022.47	2971
3021.06	2940.5
3019.64	2989.5
3018.23	2937.5
3016.82	2995
3015.4	2990
3013.99	2994
3012.57	3004
3011.15	2995
3009.74	2994
3008.32	2943
3006.91	3030
3005.49	3021.5
3004.07	3023.5
3002.65	3012.5
3001.24	3031
2999.82	3061
2998.4	3094.5
2996.98	3107.5
2995.56	3129
2994.14	3130
2992.72	3056
2991.3	3112.5
2989.88	3124
2988.46	3181
2987.03	3185
2985.61	3175.5
2984.19	3211.5
2982.77	3208
2981.34	3255
2979.92	3234.5
2978.49	3327.5
2977.07	3282
2975.65	3350.5
2974.22	3346.5
2972.79	3291
2971.37	3326
2969.94	3363.5
2968.52	3441
2967.09	3408
2965.66	3469.5
2964.23	3464
2962.81	3456
2961.38	3461
2959.95	3493.5
2958.52	3501.5
2957.09	3537
2955.66	3518
2954.23	3464.5
2952.8	3519
2951.37	3512.5
2949.94	3562.5
2948.5	3526
2947.07	3589
2945.64	3555.5
2944.21	3580
2942.77	3626
2941.34	3576.5
2939.91	3608.5
2938.47	3605
2937.04	3650.5
2935.6	3632
2934.17	3654.5
2932.73	3616.5
2931.29	3686
2929.86	3663
2928.42	3679.5
2926.98	3671.5
2925.55	3738.5
2924.11	3674.5
2922.67	3696
2921.23	3742
2919.79	3783.5
2918.35	3757.5
2916.91	3745.5
2915.47	3770
2914.03	3759
2912.59	3741.5
2911.15	3749.5
2909.71	3788
2908.26	3764.5
2906.82	3788.5
2905.38	3748
2903.94	3794.5
2902.49	3823.5
2901.05	3837.5
2899.6	3886
2898.16	3812
2896.71	3824
2895.27	3885.5
2893.82	3817.5
2892.38	3798
2890.93	3884.5
2889.48	3851
2888.03	3867
2886.59	3823
2885.14	3893.5
2883.69	3842.5
2882.24	3886
2880.79	3915
2879.34	3856.5
2877.89	3909
2876.44	3826
2874.99	3843.5
2873.54	3906
2872.09	3848
2870.64	3931
2869.18	3899
2867.73	3931.5
2866.28	3830
2864.83	3929
2863.37	3877.5
2861.92	3878
2860.46	3902.5
2859.01	3894.5
2857.55	3891
2856.1	3871
2854.64	3951.5
2853.19	3898
2851.73	3908.5
2850.27	3877
2848.81	3911.5
2847.36	3934
2845.9	3875
2844.44	3911
2842.98	3889
2841.52	3929
2840.06	3900
2838.6	3837
2837.14	3888
2835.68	3890.5
2834.22	3852
2832.76	3844
2831.3	3855
2829.83	3850.5
2828.37	3845
2826.91	3786.5
2825.44	3841.5
2823.98	3815
2822.52	3814.5
2821.05	3837
2819.59	3760
2818.12	3818.5
2816.66	3748.5
2815.19	3764.5
2813.72	3716
2812.26	3748.5
2810.79	3759
2809.32	3678
2807.85	3735.5
2806.38	3730.5
2804.92	3732
2803.45	3779.5
2801.98	3725
2800.51	3685
2799.04	3721
2797.57	3743.5
2796.1	3683
2794.62	3685
2793.15	3751
2791.68	3692
2790.21	3653
2788.73	3711.5
2787.26	3726.5
2785.79	3675
2784.31	3636.5
2782.84	3687
2781.36	3664.5
2779.89	3669
2778.41	3582.5
2776.94	3665.5
2775.46	3730.5
2773.99	3640.5
2772.51	3702
2771.03	3697.5
2769.55	3680
2768.07	3695
2766.6	3701
2765.12	3603
2763.64	3709
2762.16	3692
2760.68	3642.5
2759.2	3633
2757.72	3701.5
2756.24	3654.5
2754.75	3715.5
2753.27	3617
2751.79	3593
2750.31	3662.5
2748.82	3653.5
2747.34	3647
2745.86	3652.5
2744.37	3685
2742.89	3688
2741.4	3644
2739.92	3697.5
2738.43	3657
2736.94	3647.5
2735.46	3651
2733.97	3637.5
2732.48	3591
2731	3731
2729.51	3676
2728.02	3710.5
2726.53	3683
2725.04	3673.5
2723.55	3621
2722.06	3630.5
2720.57	3616.5
2719.08	3671.5
2717.59	3671
2716.1	3678.5
2714.61	3723.5
2713.11	3659
2711.62	3641
2710.13	3627
2708.64	3688.5
2707.14	3630.5
2705.65	3609.5
2704.15	3619.5
2702.66	3591
2701.16	3572.5
2699.67	3580.5
2698.17	3566
2696.67	3548.5
2695.18	3575
2693.68	3635.5
2692.18	3545.5
2690.69	3534.5
2689.19	3551.5
2687.69	3495
2686.19	3539.5
2684.69	3480.5
2683.19	3511
2681.69	3541
2680.19	3542
2678.69	3460.5
2677.19	3499.5
2675.68	3480.5
2674.18	3526.5
2672.68	3495.5
2671.18	3499
2669.67	3527.5
2668.17	3501
2666.66	3451
2665.16	3473
2663.66	3497
2662.15	3426
2660.64	3450
2659.14	3446
2657.63	3392
2656.13	3410.5
2654.62	3479.5
2653.11	3377
2651.6	3440
2650.09	3496
2648.58	3465.5
2647.08	3432.5
2645.57	3430.5
2644.06	3405.5
2642.55	3342
2641.04	3446
2639.52	3407
2638.01	3407.5
2636.5	3388
2634.99	3410.5
2633.48	3348
2631.96	3342.5
2630.45	3359
2628.94	3382
2627.42	3397
2625.91	3322
2624.39	3366
2622.88	3351.5
2621.36	3366.5
2619.85	3349
2618.33	3367
2616.81	3337.5
2615.3	3317
2613.78	3308.5
2612.26	3393.5
2610.74	3323
2609.22	3325
2607.7	3348.5
2606.18	3297.5
2604.66	3263
2603.14	3259
2601.62	3286.5
2600.1	3209.5
2598.58	3227.5
2597.06	3266.5
2595.54	3195
2594.01	3224.5
2592.49	3153
2590.97	3205
2589.44	3217.5
2587.92	3198.5
2586.39	3191
2584.87	3210
2583.34	3158
2581.82	3190.5
2580.29	3174
2578.76	3178
2577.24	3162.5
2575.71	3157.5
2574.18	3124.5
2572.65	3167
2571.13	3158
2569.6	3107.5
2568.07	3095
2566.54	3137.5
2565.01	3131.5
2563.48	3083
2561.95	3077.5
2560.42	3095
2558.88	3129.5
2557.35	3061.5
2555.82	3111
2554.29	3062.5
2552.75	3086
2551.22	3074.5
2549.69	3077.5
2548.15	3104
2546.62	3058
2545.08	3091
2543.55	3035
2542.01	3049.5
2540.47	3006
2538.94	2997
2537.4	2998.5
2535.86	2992.5
2534.33	2936.5
2532.79	2985
2531.25	2991
2529.71	2934
2528.17	2942.5
2526.63	2937.5
2525.09	2943.5
2523.55	2918.5
2522.01	2884
2520.47	2936
2518.92	2932
2517.38	2917
2515.84	2911
2514.3	2860.5
2512.75	2829
2511.21	2899.5
2509.67	2836.5
2508.12	2881.5
2506.58	2837
2505.03	2815
2503.49	2831
2501.94	2807.5
2500.39	2795.5
2498.85	2778
2497.3	2804
2495.75	2802
2494.2	2804.5
2492.65	2763
2491.11	2700.5
2489.56	2745.5
2488.01	2757.5
2486.46	2678.5
2484.91	2719.5
2483.36	2725
2481.8	2685
2480.25	2704.5
2478.7	2709
2477.15	2645.5
2475.6	2676
2474.04	2610
2472.49	2668
2470.93	2641.5
2469.38	2677.5
2467.83	2631.5
2466.27	2634.5
2464.71	2594
2463.16	2602
2461.6	2595
2460.05	2608.5
2458.49	2518
2456.93	2556.5
2455.37	2566
2453.81	2536
2452.26	2560
2450.7	2532
2449.14	2499
2447.58	2553.5
2446.02	2494
2444.46	2501.5
2442.9	2480.5
2441.33	2469
2439.77	2488.5
2438.21	2436
2436.65	2469.5
2435.08	2414.5
2433.52	2408
2431.96	2434
2430.39	2444.5
2428.83	2414.5
2427.26	2402.5
2425.7	2415.5
2424.13	2436
2422.56	2337
2421	2387.5
2419.43	2362
2417.86	2363
2416.3	2364
2414.73	2404
2413.16	2329.5
2411.59	2348
2410.02	2291.5
2408.45	2312
2406.88	2281
2405.31	2274.5
2403.74	2310.5
2402.17	2269
2400.6	2330.5
2399.02	2272
2397.45	2317.5
2395.88	2288
2394.3	2223.5
2392.73	2257.5
2391.16	2243
2389.58	2268.5
2388.01	2283.5
2386.43	2254
2384.86	2220
2383.28	2187
2381.7	2214.5
2380.13	2195
2378.55	2204.5
2376.97	2176
2375.39	2146.5
2373.81	2198.5
2372.23	2200.5
2370.65	2192
2369.07	2187
2367.49	2220.5
2365.91	2156
2364.33	2210
2362.75	2139.5
2361.17	2159.5
2359.59	2180.5
2358.01	2145
2356.42	2142
2354.84	2172
2353.25	2119
2351.67	2159
2350.09	2159.5
2348.5	2143.5
2346.92	2142.5
2345.33	2100.5
2343.74	2110
2342.16	2112.5
2340.57	2138
2338.98	2086
2337.39	2086.5
2335.81	2060.5
2334.22	2090
2332.63	2069
2331.04	2044
2329.45	2070
2327.86	2105
2326.27	2094
2324.68	2069
2323.09	2061.5
2321.49	2082.5
2319.9	2047
2318.31	2028
2316.72	2054
2315.12	2046.5
2313.53	2001.5
2311.93	2008
2310.34	2029.5
2308.74	2044
2307.15	1990
2305.55	1975.5
2303.96	1966.5
2302.36	2008
2300.76	1980.5
2299.17	1976.5
2297.57	1950.5
2295.97	1924
2294.37	1948
2292.77	1908
2291.17	1918.5
2289.57	1917
2287.97	1897.5
2286.37	1925.5
2284.77	1898.5
2283.17	1901.5
2281.57	1900.5
2279.96	1879
2278.36	1882.5
2276.76	1869.5
2275.15	1871
2273.55	1858.5
2271.95	1869.5
2270.34	1813.5
2268.74	1813.5
2267.13	1836
2265.52	1784
2263.92	1795.5
2262.31	1806.5
2260.7	1821.5
2259.1	1816
2257.49	1779.5
2255.88	1745
2254.27	1745
2252.66	1736.5
2251.05	1760.5
2249.44	1753.5
2247.83	1775.5
2246.22	1750.5
2244.61	1777.5
2243	1760
2241.39	1731
2239.77	1701
2238.16	1727
2236.55	1682
2234.93	1701.5
2233.32	1662
2231.7	1719.5
2230.09	1703.5
2228.47	1689
2226.86	1676.5
2225.24	1644
2223.63	1672.5
2222.01	1651
2220.39	1664
2218.77	1665
2217.16	1640
2215.54	1635.5
2213.92	1629.5
2212.3	1608
2210.68	1624
2209.06	1597
2207.44	1595
2205.82	1555.5
2204.19	1598.5
2202.57	1597
2200.95	1581
2199.33	1538
2197.7	1542
2196.08	1553.5
2194.46	1498.5
2192.83	1545
2191.21	1521
2189.58	1557.5
2187.96	1554.5
2186.33	1525.5
2184.7	1546.5
2183.08	1533.5
2181.45	1507
2179.82	1526.5
2178.19	1524
2176.57	1495.5
2174.94	1507.5
2173.31	1463.5
2171.68	1465
2170.05	1461.5
2168.42	1488.5
2166.79	1466
2165.16	1450.5
2163.52	1451
2161.89	1465.5
2160.26	1496.5
2158.63	1454.5
2156.99	1440
2155.36	1416.5
2153.73	1464
2152.09	1409
2150.46	1446.5
2148.82	1443.5
2147.18	1434
2145.55	1406
2143.91	1428
2142.27	1380.5
2140.64	1423.5
2139	1372
2137.36	1391.5
2135.72	1396
2134.08	1352
2132.44	1379
2130.8	1370
2129.16	1321
2127.52	1319
2125.88	1334
2124.24	1320
2122.6	1325
2120.95	1296
2119.31	1255
2117.67	1305.5
2116.02	1309.5
2114.38	1283
2112.74	1257.5
2111.09	1264.5
2109.45	1234
2107.8	1282.5
2106.15	1263
2104.51	1235
2102.86	1246
2101.21	1228
2099.56	1223.5
2097.92	1236.5
2096.27	1216
2094.62	1216.5
2092.97	1199
2091.32	1208
2089.67	1210
2088.02	1205
2086.37	1212.5
2084.72	1227
2083.06	1200
2081.41	1201.5
2079.76	1219.5
2078.1	1141
2076.45	1149.5
2074.8	1166
2073.14	1171
2071.49	1154.5
2069.83	1156.5
2068.18	1190.5
2066.52	1191.5
2064.86	1170
2063.21	1139.5
2061.55	1162
2059.89	1180
2058.23	1173
2056.57	1104.5
2054.92	1191
2053.26	1138
2051.6	1154
2049.94	1152
2048.27	1091.5
2046.61	1090.5
2044.95	1142.5
2043.29	1119.5
2041.63	1076
2039.97	1127
2038.3	1131.5
2036.64	1106
2034.97	1080
2033.31	1104.5
2031.64	1085.5
2029.98	1076
2028.31	1084.5
2026.65	1093
2024.98	1067
2023.31	1078
2021.65	1049.5
2019.98	1063
2018.31	1041
2016.64	1001
2014.97	995.5
2013.3	1045
2011.63	1041.5
2009.96	1021
2008.29	1016.5
2006.62	1007
2004.95	1026
2003.28	991.5
2001.6	1020
1999.93	981
1998.26	1003
1996.58	971
1994.91	992
1993.24	980
1991.56	974
1989.89	921
1988.21	946
1986.53	974.5
1984.86	954
1983.18	994
1981.5	963
1979.82	935
1978.15	973.5
1976.47	974
1974.79	957.5
1973.11	968.5
1971.43	970.5
1969.75	973.5
1968.07	965
1966.38	931
1964.7	893
1963.02	897
1961.34	942.5
1959.66	908
1957.97	921
1956.29	947.5
1954.6	905
1952.92	913.5
1951.23	901
1949.55	880.5
1947.86	907
1946.18	915
1944.49	905
1942.8	914.5
1941.11	853
1939.43	861
1937.74	904
1936.05	870
1934.36	873
1932.67	892
1930.98	850.5
1929.29	879.5
1927.6	857.5
1925.91	834
1924.21	831.5
1922.52	820
1920.83	805
1919.14	825.5
1917.44	841
1915.75	812.5
1914.05	841
1912.36	795.5
1910.66	818
1908.97	783
1907.27	833
1905.58	804.5
1903.88	830.5
1902.18	797.5
1900.48	792.5
1898.79	799.5
1897.09	806.5
1895.39	763
1893.69	781.5
1891.99	788
1890.29	752.5
1888.59	764.5
1886.89	775.5
1885.18	727.5
1883.48	742
1881.78	740
1880.08	724
1878.37	734.5
1876.67	729.5
1874.96	739.5
1873.26	719
1871.55	708.5
1869.85	771.5
1868.14	723
1866.44	712.5
1864.73	715
1863.02	701
1861.32	703
1859.61	718
1857.9	694.5
1856.19	703
1854.48	699.5
1852.77	700.5
1851.06	680
1849.35	670
1847.64	690
1845.93	640
1844.21	681
1842.5	692.5
1840.79	624
1839.08	671.5
1837.36	684.5
1835.65	674
1833.93	646.5
1832.22	673.5
1830.5	650.5
1828.79	675
1827.07	682
1825.36	646.5
1823.64	650.5
1821.92	625.5
1820.2	668
1818.48	621.5
1816.77	635.5
1815.05	621
1813.33	621
1811.61	631
1809.89	630
1808.16	657
1806.44	623
1804.72	623.5
1803	610.5
1801.28	621
1799.55	595
1797.83	620.5
1796.11	604
1794.38	587
1792.66	594.5
1790.93	618
1789.21	596.5
1787.48	598
1785.75	571
1784.03	583.5
1782.3	577.5
1780.57	597.5
1778.84	596
1777.11	557
1775.38	573
1773.66	580
1771.93	581.5
1770.19	555
1768.46	565
1766.73	553
1765	569.5
1763.27	541.5
1761.54	578
1759.8	554
1758.07	589
1756.34	570.5
1754.6	589
1752.87	598
1751.13	563
1749.4	602.5
1747.66	594
1745.92	549
1744.19	585.5
1742.45	577.5
1740.71	569
1738.97	562.5
1737.23	577.5
1735.49	569
1733.75	549.5
1732.01	540.5
1730.27	540
1728.53	567
1726.79	536
1725.05	528.5
1723.31	519.5
1721.57	539.5
1719.82	503
1718.08	529.5
1716.34	464
1714.59	539
1712.85	497
1711.1	524
1709.36	492.5
1707.61	496
1705.86	514
1704.12	481.5
1702.37	506
1700.62	520
1698.87	481
1697.12	498.5
1695.37	495.5
1693.62	492
1691.87	505
1690.12	492
1688.37	487
1686.62	486
1684.87	481
1683.12	468
1681.36	490
1679.61	481
1677.86	480.5
1676.1	474.5
1674.35	493.5
1672.59	476
1670.84	483.5
1669.08	491
1667.33	508.5
1665.57	520
1663.81	536
1662.06	552.5
1660.3	537.5
1658.54	591.5
1656.78	570
1655.02	580
1653.26	576.5
1651.5	539
1649.74	522
1647.98	485.5
1646.22	531
1644.46	459
1642.7	458
1640.93	447
1639.17	438.5
1637.41	443.5
1635.64	423
1633.88	475
1632.11	424
1630.35	422
1628.58	436.5
1626.81	430
1625.05	439
1623.28	417
1621.51	417
1619.75	440
1617.98	411
1616.21	422.5
1614.44	375
1612.67	404
1610.9	408
1609.13	369
1607.36	420
1605.58	403
1603.81	400
1602.04	409.5
1600.27	362
1598.49	404
1596.72	420
1594.95	405
1593.17	386.5
1591.4	379.5
1589.62	407
1587.84	424
1586.07	385
1584.29	405
1582.51	405
1580.74	398.5
1578.96	402.5
1577.18	391
1575.4	406
1573.62	365
1571.84	389.5
1570.06	359
1568.28	387
1566.5	361
1564.72	390
1562.93	377.5
1561.15	346
1559.37	362.5
1557.58	391
1555.8	366
1554.02	397.5
1552.23	408.5
1550.45	342.5
1548.66	340
1546.87	361
1545.09	352
1543.3	359.5
1541.51	357
1539.72	368
1537.94	373.5
1536.15	338.5
1534.36	348
1532.57	363
1530.78	332
1528.99	368.5
1527.2	343
1525.4	332
1523.61	338.5
1521.82	372.5
1520.03	339
1518.23	346
1516.44	350
1514.65	341
1512.85	328
1511.06	341.5
1509.26	364
1507.46	339
1505.67	374.5
1503.87	342.5
1502.07	334
1500.28	352.5
1498.48	361.5
1496.68	337
1494.88	352
1493.08	339.5
1491.28	320
1489.48	353.5
1487.68	374
1485.88	354.5
1484.08	376
1482.27	378
1480.47	407
1478.67	388.5
1476.86	388.5
1475.06	401.5
1473.25	435
1471.45	448
1469.64	486
1467.84	510
1466.03	505
1464.23	508
1462.42	534
1460.61	580
1458.8	546
1456.99	590.5
1455.18	585
1453.37	629
1451.56	643
1449.75	642
1447.94	665.5
1446.13	658
1444.32	679
1442.51	706
1440.7	707.5
1438.88	683
1437.07	680
1435.26	613
1433.44	590
1431.63	520.5
1429.81	491
1427.99	438
1426.18	442
1424.36	410.5
1422.54	409
1420.73	378
1418.91	408.5
1417.09	356
1415.27	367
1413.45	337.5
1411.63	344.5
1409.81	338
1407.99	341.5
1406.17	326
1404.35	312
1402.53	312
1400.7	307
1398.88	306
1397.06	281
1395.23	304.5
1393.41	294
1391.58	295
1389.76	303
1387.93	303.5
1386.11	314
1384.28	299
1382.45	304
1380.62	315.5
1378.8	322
1376.97	321
1375.14	302
1373.31	301
1371.48	327.5
1369.65	318
1367.82	332.5
1365.99	301.5
1364.16	306
1362.32	293
1360.49	287.5
1358.66	326.5
1356.82	307
1354.99	285
1353.16	337.5
1351.32	315
1349.48	299.5
1347.65	294.5
1345.81	302.5
1343.98	303.5
1342.14	292.5
1340.3	316
1338.46	311
1336.62	309
1334.79	297
1332.95	308
1331.11	299
1329.27	353.5
1327.42	313
1325.58	362
1323.74	336.5
1321.9	355.5
1320.06	390.5
1318.21	366
1316.37	425
1314.53	413
1312.68	458
1310.84	445.5
1308.99	487
1307.15	483
1305.3	527
1303.45	523
1301.61	534.5
1299.76	506.5
1297.91	533
1296.06	472.5
1294.21	456
1292.36	420.5
1290.51	414
1288.66	386
1286.81	410
1284.96	347
1283.11	364.5
1281.26	387
1279.4	349.5
1277.55	381.5
1275.7	367
1273.84	369
1271.99	393.5
1270.13	375
1268.28	364.5
1266.42	368.5
1264.56	356.5
1262.71	385
1260.85	342
1258.99	342
1257.13	350
1255.27	316.5
1253.41	304
1251.56	304
1249.7	301.5
1247.83	290
1245.97	288
1244.11	296
1242.25	284.5
1240.39	290.5
1238.52	275
1236.66	242
1234.8	287
1232.93	262
1231.07	256
1229.2	252.5
1227.34	238.5
1225.47	270.5
1223.6	276
1221.74	216.5
1219.87	244
1218	216.5
1216.13	259
1214.26	199
1212.39	229
1210.53	255
1208.65	211
1206.78	238
1204.91	246.5
1203.04	243
1201.17	248.5
1199.3	236.5
1197.42	263.5
1195.55	228.5
1193.68	254
1191.8	222
1189.93	224
1188.05	234
1186.17	243.5
1184.3	239
1182.42	239.5
1180.54	232
1178.67	238
1176.79	240
1174.91	230.5
1173.03	227
1171.15	203.5
1169.27	230
1167.39	231.5
1165.51	236
1163.63	233
1161.75	212.5
1159.86	291.5
1157.98	215
1156.1	231.5
1154.21	242
1152.33	236
1150.44	236
1148.56	251.5
1146.67	212
1144.79	239
1142.9	247
1141.01	235.5
1139.12	241
1137.24	261
1135.35	261
1133.46	261.5
1131.57	270
1129.68	300.5
1127.79	309.5
1125.9	299
1124.01	287.5
1122.12	282.5
1120.22	283.5
1118.33	302.5
1116.44	280.5
1114.54	324
1112.65	269
1110.75	270.5
1108.86	252
1106.96	287.5
1105.07	310.5
1103.17	310.5
1101.27	306
1099.38	308
1097.48	306
1095.58	354
1093.68	321
1091.78	381.5
1089.88	379.5
1087.98	352
1086.08	413
1084.18	393.5
1082.28	366.5
1080.38	387.5
1078.47	404
1076.57	384.5
1074.67	369
1072.76	343.5
1070.86	368
1068.95	365
1067.05	379
1065.14	383
1063.24	383.5
1061.33	350
1059.42	370.5
1057.51	328.5
1055.6	312.5
1053.7	278
1051.79	276
1049.88	320.5
1047.97	296.5
1046.06	326
1044.14	289
1042.23	277.5
1040.32	289
1038.41	264
1036.5	257
1034.58	298
1032.67	286
1030.75	276
1028.84	278.5
1026.92	281
1025.01	269
1023.09	269
1021.17	270
1019.26	284
1017.34	262
1015.42	293
1013.5	267
1011.58	272
1009.66	271
1007.74	299.5
1005.82	264.5
1003.9	270
1001.98	276
1000.06	260.5
998.134	267
996.212	285
994.288	270
992.364	292
990.44	311
988.515	320
986.589	317
984.663	304
982.737	325
980.81	350.5
978.883	363
976.955	370
975.027	354.5
973.098	372.5
971.169	397.5
969.239	353
967.308	412.5
965.378	392
963.447	375.5
961.516	373.5
959.583	386
957.65	365
955.718	385
953.784	409.5
951.85	378
949.916	403
947.981	369
946.045	412
944.109	446
942.173	426
940.236	394
938.298	420
936.36	420
934.422	389
932.484	387
930.544	372.5
928.604	324
926.664	352
924.724	313
922.782	319
920.84	304.5
918.898	289
916.955	274
915.012	293.5
913.068	289
911.124	315
909.18	326
907.235	321
905.289	289.5
903.343	291
901.397	303
899.45	289
897.502	321
895.554	326
893.605	322
891.657	343
889.707	356
887.758	324
885.807	343
883.856	331
881.905	320
879.953	362
878.001	353
876.048	349
874.094	351.5
872.14	342
870.186	334.5
868.232	393
866.276	361
864.321	350
862.365	322.5
860.408	306
858.451	364.5
856.493	323
854.535	341
852.576	331
850.617	339.5
848.658	338
846.698	329.5
844.737	314
842.776	312.5
840.814	313
838.852	314.5
836.89	301
834.927	302
832.963	287.5
830.999	280.5
829.035	274
827.07	267
825.105	261.5
823.139	271.5
821.172	239
819.206	265
817.238	256
815.27	264
813.301	242
811.333	251
809.363	230
807.394	240
805.424	215
803.453	223
801.482	234
799.509	210.5
797.538	213.5
795.565	186
793.592	237
791.618	191
789.643	209
787.669	221
785.693	209
783.718	196
781.742	190.5
779.765	190.5
777.788	202.5
775.811	202.5
773.832	188.5
771.853	199
769.875	214.5
767.895	211.5
765.915	168
763.934	176.5
761.953	216
759.972	199.5
757.99	182
756.007	192.5
754.024	208
752.041	203
750.056	173
748.072	204
746.087	202.5
744.102	203.5
742.116	211.5
740.13	207
738.143	196.5
736.155	210.5
734.167	188.5
732.179	194
730.19	216
728.2	217.5
726.21	209
724.22	219.5
722.229	181.5
720.237	253.5
718.246	203.5
716.253	179.5
714.26	202.5
712.267	207.5
710.273	196.5
708.279	198
706.284	174
704.289	175.5
702.293	184.5
700.296	192.5
698.3	187.5
696.303	186
694.305	196
692.307	186.5
690.307	173
688.308	194
686.309	169
684.308	207.5
682.308	191
680.306	216.5
678.304	200
676.302	193
674.3	176
672.296	208
670.293	194.5
668.289	180.5
666.284	209.5
664.278	207
662.273	188
660.266	194
658.26	213.5
656.252	197
654.244	208.5
652.237	194
650.227	188.5
648.218	209
646.209	187.5
644.198	207
642.188	199
640.177	228
638.165	211
636.153	213
634.14	223
632.128	223.5
630.113	227
628.099	219
626.085	217
624.07	212
622.054	217
620.038	228.5
618.021	223
616.004	227
613.986	228
611.968	221
609.949	197
607.93	243
605.911	215
603.891	210
601.87	248
599.848	215.5
597.827	234
595.805	241
593.782	193
591.759	209
589.735	210
587.711	209.5
585.687	201
583.661	214
581.636	207.5
579.609	191
577.583	220
575.555	225.5
573.527	206
571.5	212
569.471	225
567.441	200
565.412	220
563.382	217
561.351	244
559.32	241
557.289	226
555.257	259
553.223	224
551.19	268
549.157	256.5
547.122	277
545.088	315
543.053	305
541.017	356
538.981	331.5
536.943	423
534.907	521
532.869	646.5
530.831	906
528.792	1334
526.752	2120.5
524.713	3245.5
522.673	4198.5
520.632	4300
518.591	3582
516.549	2614.5
514.507	1784.5
512.464	1150.5
510.42	790
508.377	566.5
506.332	462
504.288	378
502.242	361
500.196	371
498.15	348
496.104	291
494.056	315
492.008	328.5
489.96	293
487.911	289
485.862	248
483.812	290
481.761	262
479.71	301.5
477.659	281.5
475.607	272
473.555	266.5
471.502	256
469.448	258
467.395	249.5
465.34	227
463.285	247.5
461.23	231
459.174	248
457.118	252.5
455.061	251
453.003	267.5
450.945	267
448.887	249
446.828	272
444.768	241
442.708	270.5
440.647	264
438.587	260
436.525	284
434.463	311.5
432.4	275.5
430.337	289.5
428.274	269
426.21	309.5
424.145	271
422.079	272
420.014	258
417.948	302
415.882	270.5
413.814	270
411.746	284
409.679	274
407.609	308
405.54	276
403.47	298
401.401	298
399.329	283
397.258	295
395.187	280
393.114	298
391.041	293
388.968	302
386.895	311
384.82	313.5
382.745	319.5
380.67	305
378.594	300.5
376.517	298
374.44	287.5
372.363	322.5
370.286	290.5
368.207	305
366.128	293
364.049	335.5
361.969	315.5
359.888	293.5
357.807	307
355.725	320
353.643	352
351.561	316
349.477	329.5
347.394	328
345.31	325.5
343.226	321
341.141	326.5
339.055	342
336.968	345
334.882	332
332.795	370.5
330.707	338.5
328.618	356
326.53	379
324.44	354.5
322.351	362
320.26	378.5
318.17	374
316.078	407
313.987	418.5
311.895	434
309.802	460.5
307.708	497
305.614	503.5
303.52	498.5
301.425	494
299.329	456
297.233	470.5
295.137	424.5
293.039	450
290.942	405
288.844	406
286.745	408
284.647	423.5
282.546	408
280.446	398
278.346	411
276.245	393
274.143	399.5
272.041	404
269.939	412
267.835	388
265.731	431
263.627	385
261.522	421
259.417	413
257.311	425
255.204	427.5
253.098	418.5
250.99	423.5
248.882	441.5
246.774	444.5
244.664	444.5
242.555	434.5
240.445	425
238.334	458
236.223	466
234.112	454
232	489.5
229.888	438
227.775	473
225.661	497.5
223.546	437.5
221.431	478.5
219.316	476
217.201	463.5
215.084	465
212.967	435
210.85	475
208.732	488
206.614	493.5
204.495	463.5
202.375	467.5
200.256	508
198.135	490
196.014	489.5
193.893	488
191.771	501
189.648	499
187.525	509
185.401	491
183.277	483.5
181.152	490
179.027	510.5
176.901	526
174.775	498
172.648	517.5
170.521	535
168.393	551.5
166.265	572.5
164.136	513
162.007	550
159.876	568
157.746	564
155.615	595
153.483	611
151.351	624.5
149.219	598
147.086	678.5
144.952	701
142.818	663
140.684	704.5
138.548	708
136.413	718
134.276	791
132.139	815
130.002	856.5
127.864	856
125.725	898
123.587	918.5
121.447	977.5
119.307	978
117.166	1058
115.026	1068.5
112.885	1122
110.743	1181
108.6	1201
106.456	1251.5
104.313	1257
102.169	1280.5
100.023	1210
97.8789	1210
95.7328	1049
93.5869	976
91.4392	853.5
89.2919	715
87.1447	570.5
84.9959	459
