3528.51	676
3527.23	754.5
3525.95	753
3524.67	772.5
3523.39	807.5
3522.1	771.5
3520.82	818
3519.54	829.5
3518.26	790
3516.97	802.5
3515.69	828.5
3514.4	821.5
3513.12	820
3511.84	813.5
3510.55	783.5
3509.26	844
3507.98	852
3506.69	817
3505.41	819.5
3504.12	876.5
3502.83	853
3501.54	862.5
3500.26	872
3498.97	903
3497.68	907.5
3496.39	916.5
3495.1	922
3493.81	943
3492.52	952.5
3491.23	925.5
3489.94	962.5
3488.65	992.5
3487.36	1024.5
3486.07	1006.5
3484.78	1008.5
3483.49	1036
3482.19	1068
3480.9	1044
3479.61	1051
3478.31	1074.5
3477.02	1135.5
3475.73	1055
3474.43	1118
3473.14	1120
3471.84	1193.5
3470.54	1176.5
3469.25	1170
3467.95	1209.5
3466.66	1196.5
3465.36	1169
3464.06	1193
3462.76	1182.5
3461.46	1215
3460.17	1231
3458.87	1186
3457.57	1255.5
3456.27	1184
3454.97	1233.5
3453.67	1262.5
3452.37	1292.5
3451.07	1274
3449.77	1270.5
3448.47	1313.5
3447.16	1300
3445.86	1342.5
3444.56	1356.5
3443.26	1300.5
3441.95	1378.5
3440.65	1348
3439.35	1433
3438.04	1435
3436.74	1469
3435.43	1512
3434.13	1517
3432.82	1584
3431.52	1574
3430.21	1601.5
3428.9	1621
3427.6	1653
3426.29	1692.5
3424.98	1724.5
3423.67	1712.5
3422.36	1726.5
3421.06	1757
3419.75	1794
3418.44	1800
3417.13	1758
3415.82	1868
3414.51	1863.5
3413.2	1873.5
3411.88	1927.5
3410.57	1896.5
3409.26	1942.5
3407.95	1955
3406.64	1955.5
3405.32	1966
3404.01	1996
3402.7	2029.5
3401.38	2043.5
3400.07	2017
3398.75	2081
3397.44	2109
3396.12	2109
3394.81	2132.5
3393.49	2116
3392.18	2146.5
3390.86	2169.5
3389.54	2154.5
3388.23	2201
3386.91	2180
3385.59	2227.5
3384.27	2267
3382.95	2260.5
3381.63	2309
3380.31	2350.5
3378.99	2373.5
3377.67	2357
3376.35	2386.5
3375.03	2416
3373.71	2405
3372.39	2441.5
3371.07	2406
3369.75	2449.5
3368.42	2524.5
3367.1	2538.5
3365.78	2570.5
3364.45	2551
3363.13	2520
3361.81	2591
3360.48	2600.5
3359.16	2608.5
3357.83	2627.5
3356.51	2685
3355.18	2666
3353.85	2656.5
3352.53	2644.5
3351.2	2694.5
3349.87	2701
3348.54	2710
3347.22	2745
3345.89	2720.5
3344.56	2738
3343.23	2720
3341.9	2698
3340.57	2707.5
3339.24	2729
3337.91	2756.5
3336.58	2758
3335.25	2825.5
3333.92	2789.5
3332.58	2809.5
3331.25	2821.5
3329.92	2821.5
3328.59	2908.5
3327.25	2903.5
3325.92	2894.5
3324.58	2938
3323.25	2941.5
3321.92	2948.5
3320.58	2953.5
3319.25	2988.5
3317.91	2984.5
3316.57	2981.5
3315.24	3030
3313.9	3035
3312.56	3005.5
3311.23	3060.5
3309.89	3079
3308.55	3085.5
3307.21	3164.5
3305.87	3166.5
3304.53	3150
3303.19	3146.5
3301.85	3155
3300.51	3184
3299.17	3152
3297.83	3206
3296.49	3218
3295.15	3251.5
3293.81	3188
3292.46	3203
3291.12	3204.5
3289.78	3205
3288.43	3215
3287.09	3293
3285.75	3307.5
3284.4	3335.5
3283.06	3295
3281.71	3339.5
3280.37	3334
3279.02	3385
3277.67	3404
3276.33	3396.5
3274.98	3394.5
3273.63	3494
3272.28	3434.5
3270.94	3458
3269.59	3575.5
3268.24	3479
3266.89	3552
3265.54	3596.5
3264.19	3610
3262.84	3649
3261.49	3750
3260.14	3803
3258.79	3794
3257.44	3854.5
3256.08	3968.5
3254.73	4009.5
3253.38	4208
3252.03	4166
3250.67	4266.5
3249.32	4348
3247.96	4543.5
3246.61	4655.5
3245.26	4788.5
3243.9	4882
3242.54	4994
3241.19	5151.5
3239.83	5255.5
3238.48	5430.5
3237.12	5570
3235.76	5646
3234.41	5873
3233.05	5967
3231.69	6131.5
3230.33	6213
3228.97	6413
3227.61	6629.5
3226.25	6697.5
3224.89	6833.5
3223.53	6862.5
3222.17	7000.5
3220.81	7101
3219.45	7188
3218.09	7283.5
3216.72	7366
3215.36	7488.5
3214	7501.5
3212.63	7555.5
3211.27	7593
3209.91	7743.5
3208.54	7760.5
3207.18	7745.5
3205.81	7840.5
3204.45	7810.5
3203.08	7903
3201.71	7914.5
3200.35	7980
3198.98	8022
3197.61	8111
3196.25	8146.5
3194.88	8160.5
3193.51	8190
3192.14	8177
3190.77	8256.5
3189.4	8250.5
3188.03	8305
3186.66	8331
3185.29	8412.5
3183.92	8460
3182.55	8520.5
3181.18	8509.5
3179.81	8608
3178.44	8739
3177.06	8710.5
3175.69	8794
3174.32	8789
3172.94	8911.5
3171.57	8948
3170.2	9049.5
3168.82	9111
3167.45	9170.5
3166.07	9229.5
3164.69	9363.5
3163.32	9361
3161.94	9391.5
3160.56	9454
3159.19	9507.5
3157.81	9580
3156.43	9774.5
3155.05	9793
3153.67	9931
3152.3	9974.5
3150.92	10001
3149.54	10128
3148.16	10129.5
3146.78	10323
3145.4	10168
3144.01	10348
3142.63	10330
3141.25	10514
3139.87	10551.5
3138.49	10614.5
3137.1	10694.5
3135.72	10743
3134.34	10772.5
3132.95	10889.5
3131.57	10955
3130.18	11061.5
3128.8	11122.5
3127.41	11135.5
3126.03	11284.5
3124.64	11303.5
3123.25	11405
3121.87	11460
3120.48	11474
3119.09	11631
3117.7	11686
3116.32	11698
3114.93	11866
3113.54	11842.5
3112.15	11837
3110.76	11938
3109.37	11942.5
3107.98	12075.5
3106.59	11967.5
3105.2	12139.5
3103.8	12194
3102.41	12103
3101.02	12160
3099.63	12321
3098.23	12358
3096.84	12367.5
3095.45	12317
3094.05	12416
3092.66	12474.5
3091.26	12530.5
3089.87	12614.5
3088.47	12606
3087.08	12584
3085.68	12768
3084.28	12773
3082.89	12843.5
3081.49	12929
3080.09	12958
3078.69	12892
3077.3	12929.5
3075.9	12953.5
3074.5	13057
3073.1	13035.5
3071.7	13040.5
3070.3	13003.5
3068.9	13035
3067.5	13141
3066.09	13243.5
3064.69	13184
3063.29	13248
3061.89	13132
3060.48	13371.5
3059.08	13237.5
3057.68	13326.5
3056.27	13467.5
3054.87	13375.5
3053.46	13343
3052.06	13558.5
3050.65	13525
3049.25	13561
3047.84	13685.5
3046.44	13719.5
3045.03	13750.5
3043.62	13729
3042.21	13853
3040.81	13915
3039.4	13858.5
3037.99	13872.5
3036.58	13968.5
3035.17	14009
3033.76	14213
3032.35	14171
3030.94	14082.5
3029.53	14027.5
3028.12	14129.5
3026.71	14181.5
3025.29	14195
3023.88	14188
3022.47	14252.5
3021.06	14134
3019.64	14158.5
3018.23	14242
3016.82	14286
3015.4	14226.5
3013.99	14279.5
3012.57	14254.5
3011.15	14437.5
3009.74	14267.5
3008.32	14381.5
3006.91	14428.5
3005.49	14431.5
3004.07	14534.5
3002.65	14455.5
3001.24	14500.5
2999.82	14630.5
2998.4	14660.5
2996.98	14667.5
2995.56	14732
2994.14	14795.5
2992.72	14923.5
2991.3	15045
2989.88	15177
2988.46	15096.5
2987.03	15215.5
2985.61	15406
2984.19	15593
2982.77	15462.5
2981.34	15563.5
2979.92	15724
2978.49	15748
2977.07	15800
2975.65	15981
2974.22	16002
2972.79	16040
2971.37	16220
2969.94	16150
2968.52	16304
2967.09	16310
2965.66	16485
2964.23	16313.5
2962.81	16348
2961.38	16377
2959.95	16567
2958.52	16460.5
2957.09	16519
2955.66	16514.5
2954.23	16481
2952.8	16534.5
2951.37	16590
2949.94	16629.5
2948.5	16589
2947.07	16522.5
2945.64	16640.5
2944.21	16643
2942.77	16800
2941.34	16726
2939.91	16767
2938.47	16754
2937.04	17030
2935.6	16972
2934.17	17017
2932.73	17093.5
2931.29	17040
2929.86	17188
2928.42	17233.5
2926.98	17205.5
2925.55	17162
2924.11	17202.5
2922.67	17337.5
2921.23	17311.5
2919.79	17297.5
2918.35	17488.5
2916.91	17243.5
2915.47	17355.5
2914.03	17450
2912.59	17526
2911.15	17678.5
2909.71	17536.5
2908.26	17622
2906.82	17656
2905.38	17694
2903.94	17723
2902.49	17709
2901.05	17810.5
2899.6	17688
2898.16	17803
2896.71	17899
2895.27	17829.5
2893.82	17894
2892.38	17883
2890.93	17873
2889.48	17800.5
2888.03	17943
2886.59	17826
2885.14	17816
2883.69	18007
2882.24	17969.5
2880.79	17994.5
2879.34	18086
2877.89	18143.5
2876.44	18140
2874.99	18177.5
2873.54	18141.5
2872.09	18215
2870.64	18139
2869.18	18167.5
2867.73	18345
2866.28	18222
2864.83	18334.5
2863.37	18273.5
2861.92	18321
2860.46	18214
2859.01	18231.5
2857.55	18186.5
2856.1	18382
2854.64	18321
2853.19	18258.5
2851.73	18366
2850.27	18346.5
2848.81	18378.5
2847.36	18469
2845.9	18413
2844.44	18507.5
2842.98	18354.5
2841.52	18438
2840.06	18413
2838.6	18437.5
2837.14	18426
2835.68	18224
2834.22	18211
2832.76	18281
2831.3	18247.5
2829.83	18209
2828.37	18125.5
2826.91	18211
2825.44	18229.5
2823.98	18264
2822.52	18190.5
2821.05	18320
2819.59	18224
2818.12	18161.5
2816.66	18034
2815.19	18059
2813.72	18018.5
2812.26	17970
2810.79	18197.5
2809.32	17881
2807.85	17904.5
2806.38	18015
2804.92	17930
2803.45	17909
2801.98	17903.5
2800.51	17841
2799.04	17941.5
2797.57	17906
2796.1	17870.5
2794.62	17851.5
2793.15	17750.5
2791.68	17690.5
2790.21	17700.5
2788.73	17655.5
2787.26	17706
2785.79	17708
2784.31	17698
2782.84	17661
2781.36	17726
2779.89	17804
2778.41	17843.5
2776.94	17804.5
2775.46	17939.5
2773.99	17940.5
2772.51	18087
2771.03	18087.5
2769.55	18056.5
2768.07	18119
2766.6	18060.5
2765.12	18184.5
2763.64	18237.5
2762.16	18069
2760.68	18079.5
2759.2	18079
2757.72	18109
2756.24	18031
2754.75	18112.5
2753.27	18039.5
2751.79	18025.5
2750.31	17901
2748.82	18074
2747.34	18056
2745.86	18116.5
2744.37	17983.5
2742.89	17966.5
2741.4	18012
2739.92	18046.5
2738.43	17903
2736.94	17965
2735.46	17914
2733.97	17961
2732.48	17841
2731	17820.5
2729.51	17836.5
2728.02	17837
2726.53	17781.5
2725.04	17788
2723.55	17620.5
2722.06	17664.5
2720.57	17778.5
2719.08	17716.5
2717.59	17815.5
2716.1	17831.5
2714.61	17690.5
2713.11	17745.5
2711.62	17857.5
2710.13	17873.5
2708.64	17679.5
2707.14	17909
2705.65	17732.5
2704.15	17647
2702.66	17731.5
2701.16	17654
2699.67	17692
2698.17	17745.5
2696.67	17831.5
2695.18	17678
2693.68	17662
2692.18	17697.5
2690.69	17631.5
2689.19	17650
2687.69	17567.5
2686.19	17651
2684.69	17576
2683.19	17571
2681.69	17515
2680.19	17400
2678.69	17342
2677.19	17300
2675.68	17333
2674.18	17192.5
2672.68	17223
2671.18	17230.5
2669.67	17130.5
2668.17	17249.5
2666.66	17113
2665.16	17068
2663.66	17204.5
2662.15	17124
2660.64	17170.5
2659.14	17091
2657.63	17018.5
2656.13	17006
2654.62	16813
2653.11	16921.5
2651.6	17050
2650.09	16968.5
2648.58	16860
2647.08	17024
2645.57	16875
2644.06	16847
2642.55	16675
2641.04	16878.5
2639.52	16779
2638.01	16668.5
2636.5	16689
2634.99	16624.5
2633.48	16463.5
2631.96	16566.5
2630.45	16427
2628.94	16337
2627.42	16324.5
2625.91	16318.5
2624.39	16207.5
2622.88	16268.5
2621.36	16254
2619.85	16265
2618.33	16186
2616.81	16248.5
2615.3	16149.5
2613.78	16138
2612.26	16173.5
2610.74	16059
2609.22	16101
2607.7	16079.5
2606.18	15984
2604.66	15966.5
2603.14	15890.5
2601.62	15770.5
2600.1	15714
2598.58	15586.5
2597.06	15529.5
2595.54	15595.5
2594.01	15501
2592.49	15567.5
2590.97	15539.5
2589.44	15570
2587.92	15472.5
2586.39	15476.5
2584.87	15358.5
2583.34	15322.5
2581.82	15344.5
2580.29	15368
2578.76	15406
2577.24	15342.5
2575.71	15333
2574.18	15319
2572.65	15395
2571.13	15301.5
2569.6	15312
2568.07	15273.5
2566.54	15341.5
2565.01	15381
2563.48	15312
2561.95	15142.5
2560.42	15242.5
2558.88	15151
2557.35	15136
2555.82	15015
2554.29	14935
2552.75	14942
2551.22	14798.5
2549.69	14883
2548.15	14855
2546.62	14805.5
2545.08	14735.5
2543.55	14724
2542.01	14659
2540.47	14583
2538.94	14584.5
2537.4	14577.5
2535.86	14451
2534.33	14469.5
2532.79	14469
2531.25	14469
2529.71	14422.5
2528.17	14190
2526.63	14326.5
2525.09	14259
2523.55	14254.5
2522.01	14192.5
2520.47	14130
2518.92	14080
2517.38	14152.5
2515.84	14038
2514.3	14091
2512.75	13968
2511.21	13959.5
2509.67	13857
2508.12	13882.5
2506.58	13884.5
2505.03	13810.5
2503.49	13740.5
2501.94	13700
2500.39	13700
2498.85	13665.5
2497.3	13608
2495.75	13635
2494.2	13603
2492.65	13481.5
2491.11	13345.5
2489.56	13405.5
2488.01	13392
2486.46	13317
2484.91	13401.5
2483.36	13305
2481.8	13080
2480.25	13127
2478.7	13127.5
2477.15	13216.5
2475.6	13138
2474.04	12977.5
2472.49	12984
2470.93	12906.5
2469.38	12794
2467.83	12720.5
2466.27	12723.5
2464.71	12694
2463.16	12580
2461.6	12557
2460.05	12508.5
2458.49	12443.5
2456.93	12402.5
2455.37	12392.5
2453.81	12257.5
2452.26	12113.5
2450.7	12114
2449.14	11953
2447.58	12137
2446.02	12011.5
2444.46	11999.5
2442.9	11890.5
2441.33	11925
2439.77	11930
2438.21	11873.5
2436.65	11873.5
2435.08	11815.5
2433.52	11873.5
2431.96	11893
2430.39	11758
2428.83	11790.5
2427.26	11575.5
2425.7	11575.5
2424.13	11503.5
2422.56	11512.5
2421	11591
2419.43	11400
2417.86	11402
2416.3	11452.5
2414.73	11385.5
2413.16	11305.5
2411.59	11385.5
2410.02	11365.5
2408.45	11284.5
2406.88	11334.5
2405.31	11393.5
2403.74	11386
2402.17	11168.5
2400.6	11227.5
2399.02	11170
2397.45	11186.5
2395.88	11124.5
2394.3	11118
2392.73	10972.5
2391.16	11024.5
2389.58	10990
2388.01	11003
2386.43	11045.5
2384.86	10941.5
2383.28	11001.5
2381.7	10926.5
2380.13	11021.5
2378.55	10918.5
2376.97	10870
2375.39	10877
2373.81	10780
2372.23	10771
2370.65	10849
2369.07	10761.5
2367.49	10770
2365.91	10679
2364.33	10756
2362.75	10804
2361.17	10688
2359.59	10784
2358.01	10638
2356.42	10643
2354.84	10662
2353.25	10591.5
2351.67	10579
2350.09	10648.5
2348.5	10592.5
2346.92	10573
2345.33	10497
2343.74	10516
2342.16	10543.5
2340.57	10439.5
2338.98	10463.5
2337.39	10435
2335.81	10428
2334.22	10424.5
2332.63	10423
2331.04	10354
2329.45	10384.5
2327.86	10280
2326.27	10235
2324.68	10178
2323.09	10152
2321.49	10185
2319.9	10102
2318.31	10129.5
2316.72	10026
2315.12	10078.5
2313.53	10058
2311.93	9930
2310.34	9892.5
2308.74	9981.5
2307.15	9856.5
2305.55	9915.5
2303.96	9850.5
2302.36	9813.5
2300.76	9681.5
2299.17	9654
2297.57	9658
2295.97	9600
2294.37	9680
2292.77	9637
2291.17	9523
2289.57	9586.5
2287.97	9426
2286.37	9444
2284.77	9410
2283.17	9341.5
2281.57	9337
2279.96	9377.5
2278.36	9416.5
2276.76	9296
2275.15	9365
2273.55	9196.5
2271.95	9188.5
2270.34	9154
2268.74	9063
2267.13	9036
2265.52	8987
2263.92	8961.5
2262.31	8906.5
2260.7	8855.5
2259.1	8806
2257.49	8845
2255.88	8775
2254.27	8784.5
2252.66	8845
2251.05	8831
2249.44	8807.5
2247.83	8795.5
2246.22	8795
2244.61	8772.5
2243	8762
2241.39	8673
2239.77	8659.5
2238.16	8734
2236.55	8605.5
2234.93	8547
2233.32	8497.5
2231.7	8475.5
2230.09	8555
2228.47	8378.5
2226.86	8375.5
2225.24	8343.5
2223.63	8376.5
2222.01	8298.5
2220.39	8330.5
2218.77	8255.5
2217.16	8232
2215.54	8198
2213.92	8230
2212.3	8210.5
2210.68	8182
2209.06	8133
2207.44	8006.5
2205.82	8036
2204.19	8019
2202.57	8036
2200.95	8006.5
2199.33	7944.5
2197.7	7891.5
2196.08	7926
2194.46	7920
2192.83	7855
2191.21	7738
2189.58	7778.5
2187.96	7777
2186.33	7765
2184.7	7758
2183.08	7706
2181.45	7727.5
2179.82	7642.5
2178.19	7614.5
2176.57	7581.5
2174.94	7526
2173.31	7485
2171.68	7511
2170.05	7518
2168.42	7426
2166.79	7481.5
2165.16	7367.5
2163.52	7277.5
2161.89	7282.5
2160.26	7328.5
2158.63	7272.5
2156.99	7258.5
2155.36	7256
2153.73	7212.5
2152.09	7186
2150.46	7187
2148.82	7051.5
2147.18	7023
2145.55	6982.5
2143.91	7111.5
2142.27	6991.5
2140.64	7048
2139	6973.5
2137.36	6872.5
2135.72	6897.5
2134.08	6872
2132.44	6821
2130.8	6733.5
2129.16	6783.5
2127.52	6757.5
2125.88	6717
2124.24	6554
2122.6	6547
2120.95	6599
2119.31	6568.5
2117.67	6598
2116.02	6547.5
2114.38	6403
2112.74	6444
2111.09	6391
2109.45	6379.5
2107.8	6319
2106.15	6372.5
2104.51	6306.5
2102.86	6340
2101.21	6197
2099.56	6259.5
2097.92	6156.5
2096.27	6180.5
2094.62	6201
2092.97	6172.5
2091.32	6149.5
2089.67	6160.5
2088.02	6112.5
2086.37	6114.5
2084.72	6138
2083.06	6081.5
2081.41	6093
2079.76	6097.5
2078.1	6095.5
2076.45	6104
2074.8	6117.5
2073.14	5990.5
2071.49	5997
2069.83	6082.5
2068.18	6041
2066.52	6069
2064.86	5979.5
2063.21	5944
2061.55	5992.5
2059.89	5945.5
2058.23	5915.5
2056.57	5902
2054.92	5907
2053.26	5850.5
2051.6	5876
2049.94	5800
2048.27	5787.5
2046.61	5808
2044.95	5799.5
2043.29	5728.5
2041.63	5697
2039.97	5617
2038.3	5646
2036.64	5544
2034.97	5583
2033.31	5508
2031.64	5479.5
2029.98	5488
2028.31	5396
2026.65	5385
2024.98	5304.5
2023.31	5403
2021.65	5378.5
2019.98	5366.5
2018.31	5280.5
2016.64	5228
2014.97	5202
2013.3	5199
2011.63	5237
2009.96	5142
2008.29	5178.5
2006.62	5143
2004.95	5105
2003.28	5127.5
2001.6	5058.5
1999.93	5057
1998.26	5070
1996.58	5066
1994.91	5122.5
1993.24	5029
1991.56	5010
1989.89	5039.5
1988.21	4993.5
1986.53	4979
1984.86	4938.5
1983.18	4901
1981.5	4926.5
1979.82	4811.5
1978.15	4806.5
1976.47	4826.5
1974.79	4859
1973.11	4778
1971.43	4766.5
1969.75	4794
1968.07	4725
1966.38	4697
1964.7	4613.5
1963.02	4618
1961.34	4593.5
1959.66	4661.5
1957.97	4567.5
1956.29	4533
1954.6	4554
1952.92	4531
1951.23	4552.5
1949.55	4525
1947.86	4480
1946.18	4487.5
1944.49	4391.5
1942.8	4431
1941.11	4368.5
1939.43	4364
1937.74	4357.5
1936.05	4345.5
1934.36	4318
1932.67	4317
1930.98	4287
1929.29	4245.5
1927.6	4237.5
1925.91	4151
1924.21	4228.5
1922.52	4201
1920.83	4133.5
1919.14	4128.5
1917.44	4142.5
1915.75	4126.5
1914.05	4079.5
1912.36	4125
1910.66	4087
1908.97	4082
1907.27	4056.5
1905.58	4177
1903.88	4021
1902.18	4055.5
1900.48	4022.5
1898.79	3943
1897.09	3934
1895.39	3979.5
1893.69	3876.5
1891.99	3957.5
1890.29	3795.5
1888.59	3798
1886.89	3760
1885.18	3773.5
1883.48	3709.5
1881.78	3698
1880.08	3710.5
1878.37	3657
1876.67	3687
1874.96	3640.5
1873.26	3590.5
1871.55	3556.5
1869.85	3566.5
1868.14	3632
1866.44	3539
1864.73	3555
1863.02	3536.5
1861.32	3534
1859.61	3451.5
1857.9	3526
1856.19	3487.5
1854.48	3447.5
1852.77	3442
1851.06	3391.5
1849.35	3462.5
1847.64	3402
1845.93	3408.5
1844.21	3404
1842.5	3409
1840.79	3366.5
1839.08	3365
1837.36	3288
1835.65	3251.5
1833.93	3273.5
1832.22	3327
1830.5	3266.5
1828.79	3242.5
1827.07	3197.5
1825.36	3164.5
1823.64	3131
1821.92	3148.5
1820.2	3163.5
1818.48	3147.5
1816.77	3170
1815.05	3084
1813.33	3109
1811.61	3102
1809.89	3072
1808.16	3103
1806.44	2993.5
1804.72	3005
1803	2995
1801.28	2997
1799.55	2915
1797.83	3001
1796.11	2902.5
1794.38	2969
1792.66	2907
1790.93	2966
1789.21	2841.5
1787.48	2858
1785.75	2862.5
1784.03	2808
1782.3	2810
1780.57	2807.5
1778.84	2824.5
1777.11	2818.5
1775.38	2765.5
1773.66	2762
1771.93	2802
1770.19	2794
1768.46	2758.5
1766.73	2793
1765	2760
1763.27	2761.5
1761.54	2742
1759.8	2724
1758.07	2752.5
1756.34	2734
1754.6	2750
1752.87	2735.5
1751.13	2725.5
1749.4	2749
1747.66	2737.5
1745.92	2768.5
1744.19	2766
1742.45	2702
1740.71	2713.5
1738.97	2635.5
1737.23	2682
1735.49	2587.5
1733.75	2647.5
1732.01	2588.5
1730.27	2545.5
1728.53	2591
1726.79	2548
1725.05	2543
1723.31	2535
1721.57	2532
1719.82	2501
1718.08	2494
1716.34	2484
1714.59	2437
1712.85	2464.5
1711.1	2411
1709.36	2440
1707.61	2393
1705.86	2371
1704.12	2354.5
1702.37	2385
1700.62	2340.5
1698.87	2284
1697.12	2330
1695.37	2314
1693.62	2270.5
1691.87	2271
1690.12	2273.5
1688.37	2186.5
1686.62	2218.5
1684.87	2228
1683.12	2218
1681.36	2192
1679.61	2147
1677.86	2218
1676.1	2134
1674.35	2219.5
1672.59	2159
1670.84	2225
1669.08	2175.5
1667.33	2172
1665.57	2228.5
1663.81	2274
1662.06	2278.5
1660.3	2339.5
1658.54	2289
1656.78	2360.5
1655.02	2283.5
1653.26	2315
1651.5	2263.5
1649.74	2234
1647.98	2198.5
1646.22	2144.5
1644.46	2132.5
1642.7	2130.5
1640.93	2091
1639.17	2070
1637.41	2000
1635.64	2041.5
1633.88	2047
1632.11	2019
1630.35	1997
1628.58	2005
1626.81	1981.5
1625.05	1973.5
1623.28	1953.5
1621.51	1916
1619.75	1893
1617.98	1883
1616.21	1936
1614.44	1892
1612.67	1877
1610.9	1867.5
1609.13	1862.5
1607.36	1888
1605.58	1864.5
1603.81	1887
1602.04	1833.5
1600.27	1847.5
1598.49	1824.5
1596.72	1846.5
1594.95	1807
1593.17	1839
1591.4	1823.5
1589.62	1860
1587.84	1852.5
1586.07	1815.5
1584.29	1814.5
1582.51	1790.5
1580.74	1804.5
1578.96	1747.5
1577.18	1788
1575.4	1809
1573.62	1734
1571.84	1751.5
1570.06	1705.5
1568.28	1692
1566.5	1676
1564.72	1728.5
1562.93	1668.5
1561.15	1694
1559.37	1628.5
1557.58	1686
1555.8	1641.5
1554.02	1657.5
1552.23	1650
1550.45	1649
1548.66	1577.5
1546.87	1612
1545.09	1580.5
1543.3	1591
1541.51	1560
1539.72	1539
1537.94	1581.5
1536.15	1590.5
1534.36	1532.5
1532.57	1528.5
1530.78	1473.5
1528.99	1539
1527.2	1522.5
1525.4	1493
1523.61	1508.5
1521.82	1472
1520.03	1480
1518.23	1475.5
1516.44	1494.5
1514.65	1478
1512.85	1482
1511.06	1525.5
1509.26	1458
1507.46	1508
1505.67	1448.5
1503.87	1483.5
1502.07	1484
1500.28	1489.5
1498.48	1427.5
1496.68	1455.5
1494.88	1459.5
1493.08	1435
1491.28	1454
1489.48	1485.5
1487.68	1434
1485.88	1492.5
1484.08	1511.5
1482.27	1480
1480.47	1500.5
1478.67	1531
1476.86	1466.5
1475.06	1526
1473.25	1515.5
1471.45	1543
1469.64	1606
1467.84	1606
1466.03	1653
1464.23	1671.5
1462.42	1710
1460.61	1735
1458.8	1732
1456.99	1768
1455.18	1746
1453.37	1768.5
1451.56	1770.5
1449.75	1767
1447.94	1861
1446.13	1827.5
1444.32	1909
1442.51	1924.5
1440.7	1959.5
1438.88	1862.5
1437.07	1863
1435.26	1751
1433.44	1652.5
1431.63	1585.5
1429.81	1524
1427.99	1438.5
1426.18	1441
1424.36	1392.5
1422.54	1320
1420.73	1342
1418.91	1361.5
1417.09	1270.5
1415.27	1301
1413.45	1234.5
1411.63	1284
1409.81	1207
1407.99	1235.5
1406.17	1217
1404.35	1157
1402.53	1165.5
1400.7	1179
1398.88	1172.5
1397.06	1146.5
1395.23	1153.5
1393.41	1166
1391.58	1131.5
1389.76	1135
1387.93	1163
1386.11	1133.5
1384.28	1142.5
1382.45	1117.5
1380.62	1173
1378.8	1112
1376.97	1101.5
1375.14	1129
1373.31	1083
1371.48	1144.5
1369.65	1092
1367.82	1067
1365.99	1085
1364.16	1071
1362.32	1035
1360.49	1082
1358.66	1058
1356.82	1040
1354.99	1059.5
1353.16	1054.5
1351.32	1058
1349.48	1063
1347.65	1066
1345.81	1059.5
1343.98	1040.5
1342.14	1007.5
1340.3	1011.5
1338.46	1027.5
1336.62	1049
1334.79	1033
1332.95	1081
1331.11	1030
1329.27	1061
1327.42	1108
1325.58	1083.5
1323.74	1127
1321.9	1086
1320.06	1133
1318.21	1122.5
1316.37	1173
1314.53	1200.5
1312.68	1262
1310.84	1248
1308.99	1329
1307.15	1328.5
1305.3	1391
1303.45	1370
1301.61	1345.5
1299.76	1347.5
1297.91	1291
1296.06	1277.5
1294.21	1168.5
1292.36	1183.5
1290.51	1119
1288.66	1122
1286.81	1103
1284.96	1042.5
1283.11	1085
1281.26	1074
1279.4	1070
1277.55	1089
1275.7	1067
1273.84	1054.5
1271.99	1076.5
1270.13	1071
1268.28	1072
1266.42	1066.5
1264.56	1071
1262.71	1034
1260.85	1047
1258.99	974.5
1257.13	981
1255.27	974
1253.41	987
1251.56	942.5
1249.7	932.5
1247.83	917.5
1245.97	913.5
1244.11	883.5
1242.25	872
1240.39	857
1238.52	857
1236.66	844.5
1234.8	853
1232.93	837
1231.07	801
1229.2	858
1227.34	843
1225.47	805
1223.6	784
1221.74	783.5
1219.87	825.5
1218	771.5
1216.13	750
1214.26	751
1212.39	799
1210.53	743
1208.65	757.5
1206.78	737
1204.91	733
1203.04	780
1201.17	763.5
1199.3	745
1197.42	752.5
1195.55	758.5
1193.68	720
1191.8	732
1189.93	757.5
1188.05	707
1186.17	706.5
1184.3	714
1182.42	713
1180.54	693.5
1178.67	713.5
1176.79	731.5
1174.91	724.5
1173.03	740
1171.15	735
1169.27	684.5
1167.39	668
1165.51	687
1163.63	677.5
1161.75	701.5
1159.86	713.5
1157.98	671.5
1156.1	732.5
1154.21	693.5
1152.33	689
1150.44	682.5
1148.56	688
1146.67	698.5
1144.79	711
1142.9	685
1141.01	719
1139.12	694.5
1137.24	714.5
1135.35	705.5
1133.46	708
1131.57	748
1129.68	731.5
1127.79	770
1125.9	782.5
1124.01	790
1122.12	769.5
1120.22	763.5
1118.33	735
1116.44	780
1114.54	718
1112.65	723
1110.75	724
1108.86	734
1106.96	744
1105.07	750.5
1103.17	790
1101.27	757.5
1099.38	761
1097.48	781.5
1095.58	811
1093.68	843
1091.78	842
1089.88	869
1087.98	865
1086.08	872
1084.18	916
1082.28	927
1080.38	889
1078.47	896
1076.57	889
1074.67	883
1072.76	812
1070.86	854.5
1068.95	799
1067.05	821
1065.14	845
1063.24	832
1061.33	812.5
1059.42	750
1057.51	755.5
1055.6	720
1053.7	708.5
1051.79	682
1049.88	702
1047.97	722.5
1046.06	735.5
1044.14	698
1042.23	697.5
1040.32	706
1038.41	697
1036.5	718
1034.58	659.5
1032.67	668
1030.75	724
1028.84	697.5
1026.92	697
1025.01	707
1023.09	686
1021.17	708.5
1019.26	694
1017.34	690.5
1015.42	662
1013.5	649
1011.58	651.5
1009.66	662.5
1007.74	692
1005.82	669
1003.9	711
1001.98	672.5
1000.06	692
998.134	705.5
996.212	666.5
994.288	712.5
992.364	755.5
990.44	735
988.515	775
986.589	793
984.663	781.5
982.737	799
980.81	822
978.883	872.5
976.955	825
975.027	887
973.098	874.5
971.169	849
969.239	863.5
967.308	882
965.378	862.5
963.447	896
961.516	892
959.583	871
957.65	919
955.718	897
953.784	912
951.85	888.5
949.916	965
947.981	926.5
946.045	930
944.109	987
942.173	1003
940.236	995
938.298	936
936.36	963.5
934.422	900.5
932.484	846.5
930.544	844.5
928.604	813.5
926.664	751
924.724	719
922.782	723.5
920.84	647
918.898	658
916.955	664.5
915.012	658.5
913.068	676
911.124	663
909.18	670.5
907.235	669
905.289	665.5
903.343	679.5
901.397	713.5
899.45	659
897.502	694
895.554	724.5
893.605	726
891.657	734.5
889.707	721
887.758	722.5
885.807	705
883.856	716.5
881.905	727
879.953	744.5
878.001	735
876.048	717
874.094	716
872.14	702
870.186	749
868.232	725
866.276	738
864.321	733
862.365	723
860.408	755
858.451	662
856.493	713
854.535	707
852.576	726
850.617	652
848.658	668.5
846.698	714
844.737	679.5
842.776	695.5
840.814	668
838.852	684.5
836.89	656
834.927	606
832.963	636
830.999	599
829.035	621.5
827.07	609.5
825.105	591
823.139	582
821.172	575.5
819.206	553.5
817.238	566
815.27	555
813.301	546
811.333	510
809.363	528
807.394	529.5
805.424	482
803.453	487
801.482	496
799.509	456
797.538	469.5
795.565	489
793.592	445
791.618	457
789.643	454
787.669	443.5
785.693	475
783.718	435
781.742	465.5
779.765	467
777.788	445
775.811	433.5
773.832	449
771.853	400
769.875	458.5
767.895	448
765.915	446.5
763.934	408
761.953	440.5
759.972	419
757.99	418.5
756.007	414
754.024	438
752.041	404
750.056	416
748.072	425
746.087	436.5
744.102	437
742.116	423
740.13	428
738.143	465
736.155	418
734.167	400
732.179	444
730.19	410.5
728.2	432.5
726.21	447.5
724.22	420
722.229	427
720.237	429.5
718.246	439
716.253	406.5
714.26	398
712.267	408
710.273	430.5
708.279	371
706.284	412
704.289	369
702.293	371.5
700.296	382
698.3	414.5
696.303	412
694.305	355
692.307	412.5
690.307	405
688.308	439
686.309	398
684.308	408
682.308	399
680.306	421.5
678.304	402.5
676.302	421
674.3	404.5
672.296	423.5
670.293	426.5
668.289	413
666.284	413
664.278	417
662.273	409.5
660.266	408.5
658.26	419
656.252	397
654.244	439
652.237	397
650.227	412
648.218	407
646.209	421
644.198	416
642.188	427.5
640.177	412
638.165	410.5
636.153	418
634.14	432
632.128	412.5
630.113	437
628.099	398
626.085	429
624.07	432
622.054	447
620.038	462.5
618.021	461
616.004	434
613.986	460.5
611.968	450.5
609.949	461
607.93	431
605.911	421
603.891	459
601.87	419
599.848	427
597.827	402
595.805	405
593.782	440.5
591.759	429
589.735	450.5
587.711	417
585.687	403.5
583.661	450.5
581.636	395
579.609	450.5
577.583	419
575.555	423.5
573.527	431
571.5	414
569.471	449
567.441	434
565.412	444.5
563.382	462.5
561.351	452
559.32	467.5
557.289	477
555.257	475
553.223	490
551.19	520
549.157	563.5
547.122	607
545.088	633.5
543.053	642
541.017	697.5
538.981	817.5
536.943	932
534.907	1185.5
532.869	1549
530.831	2191
528.792	3316
526.752	5160
524.713	7706
522.673	9944
520.632	9987.5
518.591	8189
516.549	5945.5
514.507	4002.5
512.464	2590.5
510.42	1737.5
508.377	1227
506.332	947.5
504.288	837
502.242	697
500.196	668
498.15	626
496.104	606
494.056	560
492.008	560
489.96	599.5
487.911	551
485.862	508.5
483.812	533.5
481.761	503
479.71	515.5
477.659	489
475.607	488
473.555	483
471.502	487.5
469.448	480.5
467.395	470.5
465.34	490
463.285	470
461.23	457
459.174	479
457.118	458.5
455.061	467
453.003	483.5
450.945	504
448.887	510
446.828	509.5
444.768	505.5
442.708	510
440.647	546
438.587	550
436.525	545.5
434.463	541
432.4	538
430.337	551
428.274	537
426.21	552
424.145	530
422.079	545.5
420.014	544.5
417.948	549.5
415.882	547.5
413.814	513
411.746	529
409.679	560.5
407.609	553.5
405.54	573
403.47	575
401.401	551
399.329	560.5
397.258	548
395.187	578.5
393.114	603.5
391.041	591.5
388.968	543
386.895	563
384.82	599
382.745	591.5
380.67	581
378.594	586
376.517	610
374.44	593.5
372.363	595
370.286	602
368.207	617.5
366.128	572
364.049	636.5
361.969	641
359.888	618
357.807	627
355.725	612
353.643	636.5
351.561	601
349.477	643
347.394	626
345.31	640
343.226	664
341.141	680.5
339.055	654
336.968	699.5
334.882	690
332.795	726
330.707	694.5
328.618	725.5
326.53	761.5
324.44	793
322.351	793
320.26	815
318.17	834
316.078	851
313.987	901
311.895	912.5
309.802	980
307.708	1014
305.614	1032
303.52	1061
301.425	1028
299.329	1022.5
297.233	999
295.137	926
293.039	889
290.942	895
288.844	855.5
286.745	853.5
284.647	818
282.546	810
280.446	834
278.346	824
276.245	833.5
274.143	830.5
272.041	801
269.939	786
267.835	816
265.731	851
263.627	830
261.522	829
259.417	799
257.311	860
255.204	835
253.098	837
250.99	820
248.882	861
246.774	844
244.664	877
242.555	925.5
240.445	864
238.334	899
236.223	921
234.112	895
232	874
229.888	925
227.775	933
225.661	925.5
223.546	972
221.431	925.5
219.316	930
217.201	972
215.084	906.5
212.967	924
210.85	914
208.732	948
206.614	959
204.495	924
202.375	918
200.256	921
198.135	962
196.014	947
193.893	957.5
191.771	953
189.648	944
187.525	929.5
185.401	935
183.277	965.5
181.152	934
179.027	966
176.901	932
174.775	992.5
172.648	1002.5
170.521	1002
168.393	998.5
166.265	984
164.136	1044
162.007	1070.5
159.876	1038
157.746	1103
155.615	1102
153.483	1131
151.351	1166
149.219	1175.5
147.086	1171
144.952	1242
142.818	1259
140.684	1302
138.548	1300
136.413	1330
134.276	1403
132.139	1392
130.002	1468
127.864	1525
125.725	1530
123.587	1646.5
121.447	1642
119.307	1718
117.166	1741
115.026	1827
112.885	1818
110.743	1920
108.6	1947
106.456	2054.5
104.313	2042
102.169	2065
100.023	1955.5
97.8789	1851
95.7328	1700.5
93.5869	1465
91.4392	1267
89.2919	1020
87.1447	856
84.9959	655
