3528.51	464.5
3527.23	509.5
3525.95	523
3524.67	523
3523.39	534.5
3522.1	551
3520.82	573
3519.54	522
3518.26	529.5
3516.97	521.5
3515.69	547.5
3514.4	582.5
3513.12	530
3511.84	544.5
3510.55	544.5
3509.26	555
3507.98	559
3506.69	553
3505.41	582
3504.12	622
3502.83	586
3501.54	582
3500.26	599
3498.97	614
3497.68	631
3496.39	632
3495.1	633
3493.81	670
3492.52	660.5
3491.23	635
3489.94	698
3488.65	687
3487.36	697.5
3486.07	683.5
3484.78	707.5
3483.49	743
3482.19	747
3480.9	718.5
3479.61	719
3478.31	750
3477.02	743
3475.73	713
3474.43	781.5
3473.14	758
3471.84	807
3470.54	802
3469.25	786
3467.95	817.5
3466.66	808.5
3465.36	817
3464.06	805
3462.76	808
3461.46	808
3460.17	828.5
3458.87	829.5
3457.57	887
3456.27	817
3454.97	864.5
3453.67	857
3452.37	854
3451.07	896.5
3449.77	901
3448.47	932
3447.16	905
3445.86	965.5
3444.56	951
3443.26	954
3441.95	973
3440.65	990
3439.35	1005.5
3438.04	1053
3436.74	1049
3435.43	1062
3434.13	1063
3432.82	1093
3431.52	1115
3430.21	1110
3428.9	1171
3427.6	1185.5
3426.29	1180
3424.98	1191
3423.67	1223
3422.36	1198
3421.06	1241
3419.75	1237
3418.44	1293.5
3417.13	1263.5
3415.82	1310.5
3414.51	1325
3413.2	1342.5
3411.88	1351.5
3410.57	1336.5
3409.26	1339
3407.95	1350
3406.64	1398
3405.32	1367.5
3404.01	1382
3402.7	1441.5
3401.38	1419
3400.07	1411
3398.75	1469
3397.44	1430
3396.12	1425.5
3394.81	1450
3393.49	1465.5
3392.18	1470
3390.86	1496.5
3389.54	1510
3388.23	1508.5
3386.91	1513
3385.59	1513
3384.27	1544.5
3382.95	1557
3381.63	1620
3380.31	1576
3378.99	1607
3377.67	1584.5
3376.35	1621.5
3375.03	1648
3373.71	1677
3372.39	1668
3371.07	1667
3369.75	1727
3368.42	1723.5
3367.1	1706
3365.78	1738
3364.45	1743.5
3363.13	1755
3361.81	1814
3360.48	1781
3359.16	1806
3357.83	1788
3356.51	1781
3355.18	1822.5
3353.85	1803.5
3352.53	1829.5
3351.2	1864
3349.87	1831
3348.54	1857
3347.22	1875.5
3345.89	1888.5
3344.56	1901.5
3343.23	1858.5
3341.9	1889
3340.57	1912
3339.24	1924
3337.91	1898
3336.58	1907.5
3335.25	1897
3333.92	1930
3332.58	1934
3331.25	1966
3329.92	1937.5
3328.59	1950.5
3327.25	1962.5
3325.92	1991
3324.58	1989
3323.25	2026.5
3321.92	1977.5
3320.58	2043
3319.25	2045.5
3317.91	2079
3316.57	1988
3315.24	2082
3313.9	2045
3312.56	2061
3311.23	2087
3309.89	2109.5
3308.55	2121
3307.21	2091.5
3305.87	2123.5
3304.53	2148.5
3303.19	2115
3301.85	2142
3300.51	2185.5
3299.17	2187
3297.83	2202.5
3296.49	2153
3295.15	2198.5
3293.81	2226
3292.46	2204.5
3291.12	2181
3289.78	2198
3288.43	2264.5
3287.09	2261
3285.75	2221
3284.4	2247
3283.06	2251
3281.71	2303
3280.37	2318.5
3279.02	2262
3277.67	2312
3276.33	2325
3274.98	2336
3273.63	2341.5
3272.28	2383
3270.94	2375.5
3269.59	2412
3268.24	2450.5
3266.89	2495
3265.54	2525
3264.19	2502.5
3262.84	2621
3261.49	2648.5
3260.14	2658
3258.79	2722
3257.44	2734.5
3256.08	2873
3254.73	2916.5
3253.38	2968
3252.03	3014
3250.67	3084.5
3249.32	3187
3247.96	3229
3246.61	3329.5
3245.26	3384
3243.9	3506
3242.54	3608.5
3241.19	3682
3239.83	3780
3238.48	3893
3237.12	3954
3235.76	4033
3234.41	4098
3233.05	4208
3231.69	4207.5
3230.33	4323.5
3228.97	4439
3227.61	4511.5
3226.25	4537
3224.89	4646.5
3223.53	4713
3222.17	4795
3220.81	4863
3219.45	4925
3218.09	4969
3216.72	4947.5
3215.36	5011
3214	5057
3212.63	5097
3211.27	5158
3209.91	5120
3208.54	5196
3207.18	5234.5
3205.81	5227
3204.45	5269
3203.08	5239.5
3201.71	5326.5
3200.35	5337.5
3198.98	5345
3197.61	5366
3196.25	5411.5
3194.88	5414.5
3193.51	5494.5
3192.14	5564
3190.77	5582
3189.4	5590
3188.03	5610
3186.66	5640.5
3185.29	5702.5
3183.92	5738
3182.55	5727
3181.18	5755.5
3179.81	5829
3178.44	5841.5
3177.06	5934.5
3175.69	5937
3174.32	5987.5
3172.94	6028.5
3171.57	6064
3170.2	6110.5
3168.82	6166.5
3167.45	6136.5
3166.07	6225.5
3164.69	6265.5
3163.32	6376.5
3161.94	6439.5
3160.56	6408
3159.19	6532.5
3157.81	6526
3156.43	6636.5
3155.05	6632
3153.67	6630
3152.3	6804
3150.92	6818.5
3149.54	6777
3148.16	6858.5
3146.78	6972
3145.4	6978.5
3144.01	7072
3142.63	7061
3141.25	7089.5
3139.87	7083
3138.49	7172
3137.1	7264
3135.72	7362.5
3134.34	7358
3132.95	7386
3131.57	7535.5
3130.18	7488
3128.8	7602
3127.41	7598.5
3126.03	7627
3124.64	7782.5
3123.25	7724
3121.87	7721.5
3120.48	7842.5
3119.09	7881
3117.7	7911.5
3116.32	7936
3114.93	8061
3113.54	8044.5
3112.15	8047
3110.76	8111.5
3109.37	8111
3107.98	8137
3106.59	8181
3105.2	8193.5
3103.8	8239.5
3102.41	8277
3101.02	8222
3099.63	8272.5
3098.23	8370
3096.84	8423
3095.45	8506
3094.05	8336.5
3092.66	8564.5
3091.26	8444
3089.87	8613.5
3088.47	8555
3087.08	8652
3085.68	8596
3084.28	8712
3082.89	8676
3081.49	8708.5
3080.09	8767
3078.69	8735
3077.3	8794
3075.9	8869
3074.5	8831
3073.1	8809
3071.7	8845.5
3070.3	8762.5
3068.9	8797.5
3067.5	8959
3066.09	8961
3064.69	8991.5
3063.29	8972.5
3061.89	9001.5
3060.48	9068
3059.08	9124.5
3057.68	9153.5
3056.27	9137
3054.87	9206.5
3053.46	9130
3052.06	9271
3050.65	9272.5
3049.25	9284
3047.84	9272.5
3046.44	9406.5
3045.03	9268.5
3043.62	9370
3042.21	9379
3040.81	9434.5
3039.4	9503
3037.99	9490
3036.58	9520
3035.17	9540.5
3033.76	9504
3032.35	9525.5
3030.94	9579.5
3029.53	9501.5
3028.12	9582
3026.71	9626
3025.29	9612
3023.88	9554.5
3022.47	9669.5
3021.06	9674
3019.64	9637
3018.23	9630
3016.82	9633.5
3015.4	9656
3013.99	9639
3012.57	9677.5
3011.15	9755.5
3009.74	9815
3008.32	9717
3006.91	9835.5
3005.49	9824
3004.07	9854.5
3002.65	9882.5
3001.24	9916.5
2999.82	9982
2998.4	10015.5
2996.98	10091.5
2995.56	10123.5
2994.14	10187.5
2992.72	10161
2991.3	10295
2989.88	10375
2988.46	10421
2987.03	10450.5
2985.61	10566
2984.19	10564.5
2982.77	10624.5
2981.34	10639
2979.92	10707.5
2978.49	10688
2977.07	10808
2975.65	10899
2974.22	10885
2972.79	10947.5
2971.37	10915
2969.94	11007.5
2968.52	11116
2967.09	11107.5
2965.66	11096.5
2964.23	11182.5
2962.81	11153
2961.38	11157
2959.95	11184
2958.52	11165
2957.09	11166.5
2955.66	11240.5
2954.23	11248.5
2952.8	11306.5
2951.37	11291.5
2949.94	11287.5
2948.5	11341
2947.07	11288.5
2945.64	11316.5
2944.21	11439.5
2942.77	11317
2941.34	11360
2939.91	11394
2938.47	11343
2937.04	11546
2935.6	11452
2934.17	11565.5
2932.73	11542
2931.29	11657
2929.86	11719.5
2928.42	11707
2926.98	11743.5
2925.55	11793.5
2924.11	11862.5
2922.67	11730
2921.23	11745
2919.79	11817
2918.35	11790
2916.91	11741.5
2915.47	11800
2914.03	11904
2912.59	11972.5
2911.15	11896.5
2909.71	11989
2908.26	11967
2906.82	12028
2905.38	11977
2903.94	11936
2902.49	12052.5
2901.05	12160
2899.6	12122
2898.16	12099
2896.71	12057.5
2895.27	12105
2893.82	12078
2892.38	12107
2890.93	12000.5
2889.48	11979.5
2888.03	12005.5
2886.59	12154
2885.14	12143
2883.69	12181
2882.24	12078
2880.79	12091
2879.34	12225.5
2877.89	12184.5
2876.44	12221
2874.99	12273.5
2873.54	12307
2872.09	12209.5
2870.64	12285.5
2869.18	12243
2867.73	12250.5
2866.28	12348.5
2864.83	12240.5
2863.37	12234.5
2861.92	12308
2860.46	12249.5
2859.01	12270
2857.55	12243.5
2856.1	12279.5
2854.64	12278
2853.19	12291.5
2851.73	12253.5
2850.27	12424
2848.81	12316.5
2847.36	12305.5
2845.9	12252.5
2844.44	12280
2842.98	12284
2841.52	12365
2840.06	12287.5
2838.6	12352
2837.14	12384.5
2835.68	12273
2834.22	12311
2832.76	12280.5
2831.3	12305.5
2829.83	12342
2828.37	12347
2826.91	12303.5
2825.44	12241.5
2823.98	12264
2822.52	12278.5
2821.05	12213.5
2819.59	12134
2818.12	12203.5
2816.66	12158.5
2815.19	12079
2813.72	12052.5
2812.26	12083.5
2810.79	12175.5
2809.32	12142.5
2807.85	12122.5
2806.38	12064
2804.92	12154.5
2803.45	12157
2801.98	12113
2800.51	12086
2799.04	12037
2797.57	12111.5
2796.1	12065.5
2794.62	12174
2793.15	11990
2791.68	11973
2790.21	12017.5
2788.73	11996
2787.26	12006
2785.79	12166
2784.31	12052
2782.84	12129.5
2781.36	12154
2779.89	12087
2778.41	12157
2776.94	12065
2775.46	12253
2773.99	12217.5
2772.51	12242
2771.03	12293.5
2769.55	12323
2768.07	12294.5
2766.6	12382
2765.12	12314.5
2763.64	12387.5
2762.16	12433
2760.68	12404.5
2759.2	12378.5
2757.72	12450
2756.24	12334
2754.75	12459
2753.27	12344
2751.79	12428
2750.31	12431
2748.82	12458
2747.34	12331
2745.86	12295.5
2744.37	12321
2742.89	12396
2741.4	12279
2739.92	12283
2738.43	12266.5
2736.94	12298.5
2735.46	12216.5
2733.97	12188.5
2732.48	12244.5
2731	12241
2729.51	12207
2728.02	12195
2726.53	12201
2725.04	12187
2723.55	12275.5
2722.06	12109.5
2720.57	12114
2719.08	12193
2717.59	12240
2716.1	12088
2714.61	12185
2713.11	12147.5
2711.62	12243
2710.13	12129
2708.64	12143.5
2707.14	12128
2705.65	12209.5
2704.15	12079.5
2702.66	12166.5
2701.16	12171
2699.67	11999
2698.17	12077.5
2696.67	12026.5
2695.18	12007.5
2693.68	11953
2692.18	12134
2690.69	11963.5
2689.19	11992.5
2687.69	12040.5
2686.19	11905.5
2684.69	12028.5
2683.19	11902
2681.69	11927
2680.19	11980.5
2678.69	11995
2677.19	11832
2675.68	11864
2674.18	11833
2672.68	11830.5
2671.18	11859
2669.67	11817.5
2668.17	11843.5
2666.66	11776.5
2665.16	11833
2663.66	11768
2662.15	11795
2660.64	11777.5
2659.14	11689.5
2657.63	11692.5
2656.13	11630.5
2654.62	11699
2653.11	11700.5
2651.6	11643
2650.09	11619
2648.58	11554.5
2647.08	11551
2645.57	11485.5
2644.06	11525
2642.55	11622.5
2641.04	11562
2639.52	11524
2638.01	11477
2636.5	11399.5
2634.99	11434
2633.48	11356.5
2631.96	11366.5
2630.45	11272
2628.94	11284.5
2627.42	11178.5
2625.91	11230
2624.39	11152.5
2622.88	11152
2621.36	11168.5
2619.85	11073
2618.33	11167
2616.81	11102
2615.3	11070.5
2613.78	11050
2612.26	11060
2610.74	11088.5
2609.22	10988.5
2607.7	10971
2606.18	10945
2604.66	11000.5
2603.14	10916.5
2601.62	10822.5
2600.1	10781.5
2598.58	10794
2597.06	10674
2595.54	10585.5
2594.01	10650
2592.49	10635
2590.97	10543.5
2589.44	10615.5
2587.92	10649.5
2586.39	10570.5
2584.87	10651.5
2583.34	10611.5
2581.82	10593
2580.29	10546.5
2578.76	10530
2577.24	10560.5
2575.71	10492.5
2574.18	10539
2572.65	10563
2571.13	10560
2569.6	10486
2568.07	10595
2566.54	10549
2565.01	10613.5
2563.48	10553.5
2561.95	10530.5
2560.42	10473
2558.88	10427
2557.35	10464
2555.82	10398.5
2554.29	10327
2552.75	10280
2551.22	10377
2549.69	10337
2548.15	10240
2546.62	10249
2545.08	10181.5
2543.55	10223.5
2542.01	10161
2540.47	10151
2538.94	10125
2537.4	10143.5
2535.86	10046.5
2534.33	10050
2532.79	9957
2531.25	9995
2529.71	9966.5
2528.17	9987
2526.63	9824.5
2525.09	9879.5
2523.55	9862
2522.01	9820.5
2520.47	9780.5
2518.92	9760
2517.38	9743.5
2515.84	9657.5
2514.3	9680
2512.75	9750
2511.21	9573.5
2509.67	9608.5
2508.12	9537
2506.58	9481.5
2505.03	9441.5
2503.49	9405.5
2501.94	9456
2500.39	9401.5
2498.85	9325
2497.3	9375
2495.75	9354
2494.2	9331.5
2492.65	9241
2491.11	9267
2489.56	9197
2488.01	9205
2486.46	9204
2484.91	9169
2483.36	9123
2481.8	9098
2480.25	9164
2478.7	9043.5
2477.15	8974
2475.6	9011.5
2474.04	8942
2472.49	8935
2470.93	8883
2469.38	8844.5
2467.83	8811.5
2466.27	8702.5
2464.71	8731.5
2463.16	8658
2461.6	8617.5
2460.05	8627.5
2458.49	8620
2456.93	8633
2455.37	8625
2453.81	8476.5
2452.26	8455.5
2450.7	8456
2449.14	8364
2447.58	8433.5
2446.02	8376
2444.46	8315.5
2442.9	8310
2441.33	8278.5
2439.77	8312.5
2438.21	8239.5
2436.65	8165.5
2435.08	8246.5
2433.52	8210.5
2431.96	8143.5
2430.39	8153.5
2428.83	8122
2427.26	8179
2425.7	8134
2424.13	8222
2422.56	8138.5
2421	8090
2419.43	8018.5
2417.86	7982.5
2416.3	8146
2414.73	8062.5
2413.16	7994
2411.59	7973
2410.02	7954.5
2408.45	7981
2406.88	7906.5
2405.31	7946.5
2403.74	7918
2402.17	7793
2400.6	7970.5
2399.02	7858
2397.45	7813
2395.88	7832.5
2394.3	7862
2392.73	7758.5
2391.16	7783
2389.58	7790
2388.01	7818
2386.43	7697
2384.86	7677.5
2383.28	7706
2381.7	7630.5
2380.13	7662
2378.55	7596.5
2376.97	7631
2375.39	7659
2373.81	7640
2372.23	7702.5
2370.65	7613.5
2369.07	7518
2367.49	7498
2365.91	7515
2364.33	7517
2362.75	7492
2361.17	7486
2359.59	7490
2358.01	7560
2356.42	7438.5
2354.84	7452
2353.25	7435
2351.67	7458
2350.09	7354
2348.5	7309.5
2346.92	7414.5
2345.33	7374.5
2343.74	7392.5
2342.16	7360
2340.57	7285
2338.98	7211.5
2337.39	7254.5
2335.81	7242
2334.22	7182
2332.63	7176
2331.04	7174.5
2329.45	7182
2327.86	7077.5
2326.27	6985
2324.68	7079
2323.09	7048
2321.49	7051
2319.9	7076
2318.31	7072
2316.72	6958.5
2315.12	6977.5
2313.53	6975
2311.93	6932.5
2310.34	6843.5
2308.74	6861.5
2307.15	6798
2305.55	6791.5
2303.96	6820
2302.36	6700
2300.76	6726
2299.17	6676.5
2297.57	6675
2295.97	6621
2294.37	6568
2292.77	6645.5
2291.17	6592
2289.57	6644
2287.97	6636
2286.37	6562
2284.77	6594
2283.17	6613
2281.57	6600
2279.96	6577.5
2278.36	6553
2276.76	6470.5
2275.15	6411.5
2273.55	6409.5
2271.95	6411.5
2270.34	6348
2268.74	6297
2267.13	6228
2265.52	6191
2263.92	6255.5
2262.31	6263.5
2260.7	6183
2259.1	6239.5
2257.49	6177
2255.88	6095
2254.27	6122
2252.66	6192.5
2251.05	6153.5
2249.44	6111.5
2247.83	6034.5
2246.22	6116
2244.61	6071
2243	6072.5
2241.39	6060.5
2239.77	5984
2238.16	5976.5
2236.55	5998.5
2234.93	5968
2233.32	5915
2231.7	5852.5
2230.09	5818.5
2228.47	5754
2226.86	5835.5
2225.24	5774.5
2223.63	5816.5
2222.01	5834.5
2220.39	5745
2218.77	5746.5
2217.16	5641.5
2215.54	5723
2213.92	5693.5
2212.3	5661
2210.68	5618.5
2209.06	5672.5
2207.44	5654
2205.82	5582.5
2204.19	5578.5
2202.57	5532
2200.95	5595.5
2199.33	5611
2197.7	5568.5
2196.08	5494.5
2194.46	5505.5
2192.83	5495.5
2191.21	5472.5
2189.58	5494
2187.96	5491
2186.33	5429.5
2184.7	5404.5
2183.08	5423.5
2181.45	5373
2179.82	5363.5
2178.19	5348
2176.57	5288.5
2174.94	5224.5
2173.31	5216.5
2171.68	5285
2170.05	5244
2168.42	5282
2166.79	5260
2165.16	5211
2163.52	5154.5
2161.89	5092
2160.26	5159
2158.63	5062.5
2156.99	5140.5
2155.36	5036.5
2153.73	5057.5
2152.09	5048
2150.46	5081
2148.82	5021.5
2147.18	4999.5
2145.55	5010
2143.91	5031.5
2142.27	4918.5
2140.64	4922.5
2139	4928
2137.36	4922.5
2135.72	4823
2134.08	4880.5
2132.44	4801
2130.8	4819
2129.16	4729
2127.52	4667.5
2125.88	4660
2124.24	4642
2122.6	4663
2120.95	4643.5
2119.31	4625
2117.67	4585
2116.02	4565.5
2114.38	4551.5
2112.74	4575
2111.09	4561.5
2109.45	4565
2107.8	4518
2106.15	4449
2104.51	4426.5
2102.86	4502
2101.21	4398.5
2099.56	4398
2097.92	4396
2096.27	4355.5
2094.62	4467.5
2092.97	4363.5
2091.32	4395
2089.67	4358.5
2088.02	4385
2086.37	4353
2084.72	4351
2083.06	4274.5
2081.41	4272
2079.76	4251
2078.1	4289.5
2076.45	4262
2074.8	4231
2073.14	4227.5
2071.49	4236
2069.83	4169.5
2068.18	4188
2066.52	4248.5
2064.86	4166.5
2063.21	4135.5
2061.55	4129
2059.89	4056
2058.23	4126.5
2056.57	4105.5
2054.92	4077.5
2053.26	4053.5
2051.6	4037.5
2049.94	4025.5
2048.27	3957.5
2046.61	3952.5
2044.95	3933
2043.29	3926.5
2041.63	3899
2039.97	3967
2038.3	3915
2036.64	3832.5
2034.97	3834
2033.31	3779.5
2031.64	3796
2029.98	3829
2028.31	3749
2026.65	3777
2024.98	3752
2023.31	3725.5
2021.65	3692
2019.98	3750.5
2018.31	3688
2016.64	3677
2014.97	3665
2013.3	3694.5
2011.63	3638
2009.96	3661
2008.29	3675
2006.62	3543.5
2004.95	3517
2003.28	3563.5
2001.6	3566
1999.93	3538
1998.26	3592
1996.58	3599.5
1994.91	3518.5
1993.24	3509.5
1991.56	3546.5
1989.89	3508
1988.21	3553
1986.53	3506.5
1984.86	3399
1983.18	3492.5
1981.5	3434
1979.82	3449
1978.15	3407
1976.47	3376.5
1974.79	3367.5
1973.11	3353
1971.43	3344
1969.75	3356
1968.07	3255
1966.38	3302
1964.7	3273.5
1963.02	3325
1961.34	3270.5
1959.66	3308.5
1957.97	3213.5
1956.29	3230
1954.6	3230
1952.92	3253.5
1951.23	3237
1949.55	3143
1947.86	3154.5
1946.18	3164.5
1944.49	3161.5
1942.8	3142.5
1941.11	3083
1939.43	3134
1937.74	3154
1936.05	3122.5
1934.36	3091
1932.67	3078
1930.98	3082
1929.29	2979.5
1927.6	3035.5
1925.91	2942
1924.21	2989
1922.52	2936
1920.83	3023.5
1919.14	2981.5
1917.44	2953
1915.75	2888.5
1914.05	2951
1912.36	2967
1910.66	2888
1908.97	2944.5
1907.27	2902.5
1905.58	2843
1903.88	2881.5
1902.18	2828
1900.48	2808.5
1898.79	2762
1897.09	2786
1895.39	2793
1893.69	2712
1891.99	2709
1890.29	2734.5
1888.59	2706
1886.89	2692
1885.18	2631
1883.48	2653
1881.78	2613.5
1880.08	2643.5
1878.37	2586.5
1876.67	2629.5
1874.96	2566
1873.26	2563.5
1871.55	2545.5
1869.85	2578.5
1868.14	2567.5
1866.44	2572.5
1864.73	2531.5
1863.02	2532
1861.32	2475
1859.61	2455.5
1857.9	2512.5
1856.19	2533
1854.48	2451.5
1852.77	2441.5
1851.06	2470.5
1849.35	2498.5
1847.64	2474.5
1845.93	2419.5
1844.21	2475
1842.5	2427.5
1840.79	2420
1839.08	2388
1837.36	2379.5
1835.65	2383
1833.93	2332
1832.22	2355.5
1830.5	2339
1828.79	2353.5
1827.07	2237
1825.36	2336.5
1823.64	2325
1821.92	2308
1820.2	2259
1818.48	2222
1816.77	2259
1815.05	2291
1813.33	2285.5
1811.61	2263.5
1809.89	2210
1808.16	2214
1806.44	2187.5
1804.72	2133
1803	2157.5
1801.28	2191.5
1799.55	2157
1797.83	2181
1796.11	2171
1794.38	2125
1792.66	2071
1790.93	2095.5
1789.21	2094.5
1787.48	2059.5
1785.75	2112.5
1784.03	2094.5
1782.3	2103
1780.57	2079
1778.84	2063.5
1777.11	2093.5
1775.38	2079.5
1773.66	2035
1771.93	2064
1770.19	2022.5
1768.46	2060
1766.73	2029
1765	2056.5
1763.27	1990
1761.54	2042
1759.8	2010.5
1758.07	1996
1756.34	2018.5
1754.6	2003
1752.87	2019.5
1751.13	1988.5
1749.4	2007.5
1747.66	1994
1745.92	1968
1744.19	2004.5
1742.45	1971.5
1740.71	1950
1738.97	1945.5
1737.23	1902.5
1735.49	1928
1733.75	1928
1732.01	1899
1730.27	1903
1728.53	1882
1726.79	1888
1725.05	1862
1723.31	1891
1721.57	1854
1719.82	1868.5
1718.08	1857
1716.34	1827.5
1714.59	1837.5
1712.85	1759
1711.1	1822.5
1709.36	1848.5
1707.61	1788.5
1705.86	1815.5
1704.12	1796.5
1702.37	1802
1700.62	1779
1698.87	1746
1697.12	1779.5
1695.37	1746
1693.62	1749.5
1691.87	1695
1690.12	1743.5
1688.37	1701
1686.62	1692
1684.87	1712.5
1683.12	1728.5
1681.36	1702.5
1679.61	1692.5
1677.86	1699
1676.1	1718.5
1674.35	1686
1672.59	1648
1670.84	1672.5
1669.08	1687.5
1667.33	1674
1665.57	1706
1663.81	1718
1662.06	1648.5
1660.3	1661.5
1658.54	1670
1656.78	1681.5
1655.02	1612.5
1653.26	1658.5
1651.5	1616.5
1649.74	1615
1647.98	1602.5
1646.22	1616.5
1644.46	1601
1642.7	1550
1640.93	1592
1639.17	1577
1637.41	1497
1635.64	1544.5
1633.88	1568.5
1632.11	1483
1630.35	1506
1628.58	1526
1626.81	1497
1625.05	1523.5
1623.28	1513
1621.51	1473
1619.75	1424
1617.98	1482
1616.21	1505
1614.44	1461.5
1612.67	1457.5
1610.9	1436
1609.13	1469
1607.36	1495.5
1605.58	1449
1603.81	1449.5
1602.04	1463.5
1600.27	1450.5
1598.49	1419
1596.72	1485
1594.95	1420
1593.17	1477
1591.4	1397
1589.62	1402
1587.84	1429
1586.07	1424
1584.29	1407
1582.51	1390
1580.74	1396
1578.96	1371
1577.18	1374
1575.4	1380
1573.62	1379
1571.84	1357
1570.06	1346
1568.28	1314
1566.5	1333.5
1564.72	1313
1562.93	1336.5
1561.15	1364
1559.37	1319.5
1557.58	1277.5
1555.8	1316
1554.02	1305
1552.23	1307
1550.45	1317
1548.66	1291
1546.87	1287.5
1545.09	1247
1543.3	1294.5
1541.51	1272.5
1539.72	1255
1537.94	1198
1536.15	1247
1534.36	1228
1532.57	1247
1530.78	1217
1528.99	1257
1527.2	1213.5
1525.4	1179
1523.61	1198.5
1521.82	1223
1520.03	1224
1518.23	1213.5
1516.44	1240
1514.65	1189
1512.85	1171
1511.06	1193
1509.26	1188
1507.46	1161
1505.67	1192
1503.87	1190.5
1502.07	1200
1500.28	1186
1498.48	1155
1496.68	1149
1494.88	1139.5
1493.08	1160.5
1491.28	1202
1489.48	1176
1487.68	1095
1485.88	1176
1484.08	1165
1482.27	1161
1480.47	1192.5
1478.67	1177.5
1476.86	1088
1475.06	1137
1473.25	1154.5
1471.45	1159
1469.64	1159
1467.84	1141
1466.03	1171
1464.23	1149.5
1462.42	1191
1460.61	1162
1458.8	1137.5
1456.99	1190.5
1455.18	1160
1453.37	1209.5
1451.56	1171
1449.75	1126
1447.94	1172
1446.13	1152.5
1444.32	1186.5
1442.51	1137.5
1440.7	1185
1438.88	1137
1437.07	1163
1435.26	1104
1433.44	1105.5
1431.63	1122.5
1429.81	1067.5
1427.99	1081
1426.18	1064
1424.36	1028
1422.54	988
1420.73	1079
1418.91	1043.5
1417.09	984
1415.27	1066
1413.45	1031
1411.63	1040
1409.81	1043.5
1407.99	1002
1406.17	1015.5
1404.35	1027.5
1402.53	995.5
1400.7	991
1398.88	992.5
1397.06	1002
1395.23	997.5
1393.41	1000
1391.58	989
1389.76	1006
1387.93	1022
1386.11	952
1384.28	962
1382.45	993
1380.62	965.5
1378.8	975
1376.97	924
1375.14	963
1373.31	964.5
1371.48	949
1369.65	968
1367.82	914
1365.99	927
1364.16	928.5
1362.32	889
1360.49	956
1358.66	896
1356.82	923.5
1354.99	925
1353.16	911.5
1351.32	897
1349.48	903.5
1347.65	890.5
1345.81	916.5
1343.98	912
1342.14	915
1340.3	876.5
1338.46	899
1336.62	895.5
1334.79	886
1332.95	890.5
1331.11	911
1329.27	860
1327.42	898
1325.58	896
1323.74	900
1321.9	869.5
1320.06	928.5
1318.21	927.5
1316.37	923.5
1314.53	937.5
1312.68	874.5
1310.84	890.5
1308.99	917
1307.15	969
1305.3	943.5
1303.45	921
1301.61	928
1299.76	936
1297.91	935
1296.06	895
1294.21	874.5
1292.36	886.5
1290.51	889
1288.66	923
1286.81	862.5
1284.96	882
1283.11	895.5
1281.26	851.5
1279.4	857.5
1277.55	866
1275.7	852
1273.84	800
1271.99	866
1270.13	828
1268.28	830
1266.42	857.5
1264.56	836
1262.71	861
1260.85	827
1258.99	827.5
1257.13	823.5
1255.27	811
1253.41	831
1251.56	789.5
1249.7	812
1247.83	815.5
1245.97	803
1244.11	812.5
1242.25	782.5
1240.39	816
1238.52	817
1236.66	786.5
1234.8	794
1232.93	800.5
1231.07	794
1229.2	788
1227.34	764
1225.47	748.5
1223.6	752
1221.74	747
1219.87	764.5
1218	746.5
1216.13	747.5
1214.26	762
1212.39	771
1210.53	720
1208.65	735
1206.78	745
1204.91	701.5
1203.04	761.5
1201.17	762
1199.3	707
1197.42	717.5
1195.55	755
1193.68	718.5
1191.8	747.5
1189.93	728.5
1188.05	672.5
1186.17	694.5
1184.3	752.5
1182.42	763
1180.54	707
1178.67	741
1176.79	748.5
1174.91	720.5
1173.03	724.5
1171.15	703.5
1169.27	697.5
1167.39	727
1165.51	730
1163.63	698
1161.75	723.5
1159.86	713
1157.98	716.5
1156.1	729
1154.21	721
1152.33	678
1150.44	686
1148.56	720.5
1146.67	691
1144.79	717
1142.9	700
1141.01	721.5
1139.12	725.5
1137.24	754.5
1135.35	741.5
1133.46	695
1131.57	706.5
1129.68	738
1127.79	715
1125.9	724
1124.01	725.5
1122.12	722
1120.22	715.5
1118.33	697
1116.44	714
1114.54	694
1112.65	692
1110.75	709
1108.86	721
1106.96	687.5
1105.07	695.5
1103.17	711
1101.27	671
1099.38	679.5
1097.48	704.5
1095.58	724.5
1093.68	692
1091.78	724
1089.88	723
1087.98	704.5
1086.08	712
1084.18	708
1082.28	738.5
1080.38	707
1078.47	709
1076.57	713.5
1074.67	690
1072.76	736
1070.86	711
1068.95	724
1067.05	728
1065.14	700.5
1063.24	700.5
1061.33	692
1059.42	703
1057.51	699
1055.6	683.5
1053.7	694
1051.79	709.5
1049.88	672.5
1047.97	726.5
1046.06	704.5
1044.14	666.5
1042.23	677
1040.32	713
1038.41	711.5
1036.5	703
1034.58	682
1032.67	688
1030.75	717
1028.84	625
1026.92	694
1025.01	703.5
1023.09	673.5
1021.17	698.5
1019.26	712.5
1017.34	695.5
1015.42	680.5
1013.5	704.5
1011.58	687
1009.66	697.5
1007.74	699
1005.82	710.5
1003.9	747
1001.98	718
1000.06	708.5
998.134	750.5
996.212	731
994.288	768
992.364	793
990.44	781.5
988.515	810
986.589	824
984.663	871
982.737	806.5
980.81	829
978.883	841.5
976.955	856
975.027	856
973.098	821
971.169	836
969.239	848.5
967.308	864
965.378	889.5
963.447	881.5
961.516	872.5
959.583	893
957.65	887
955.718	877.5
953.784	849
951.85	929.5
949.916	925.5
947.981	914.5
946.045	931
944.109	966.5
942.173	958.5
940.236	960.5
938.298	958.5
936.36	920.5
934.422	947.5
932.484	855
930.544	823.5
928.604	756
926.664	774.5
924.724	733
922.782	749.5
920.84	721
918.898	761.5
916.955	712.5
915.012	729.5
913.068	743
911.124	726
909.18	697.5
907.235	736
905.289	721.5
903.343	744.5
901.397	731
899.45	714
897.502	725.5
895.554	724
893.605	720
891.657	718
889.707	723.5
887.758	734
885.807	702.5
883.856	743.5
881.905	716.5
879.953	742.5
878.001	753.5
876.048	748.5
874.094	753
872.14	728.5
870.186	710.5
868.232	756.5
866.276	770
864.321	745
862.365	745.5
860.408	771
858.451	747
856.493	753.5
854.535	710
852.576	737
850.617	710
848.658	698.5
846.698	687.5
844.737	714
842.776	713.5
840.814	741
838.852	731.5
836.89	714
834.927	680
832.963	680
830.999	691.5
829.035	684
827.07	724
825.105	697.5
823.139	702.5
821.172	685.5
819.206	656
817.238	713
815.27	678
813.301	698
811.333	673
809.363	670
807.394	691.5
805.424	687.5
803.453	700.5
801.482	690
799.509	690
797.538	683.5
795.565	682.5
793.592	649.5
791.618	701
789.643	697.5
787.669	651
785.693	678
783.718	654
781.742	665
779.765	697.5
777.788	625.5
775.811	674.5
773.832	653.5
771.853	601.5
769.875	660
767.895	664
765.915	650
763.934	629.5
761.953	659.5
759.972	642.5
757.99	624.5
756.007	646.5
754.024	638
752.041	664
750.056	652.5
748.072	659.5
746.087	668
744.102	663
742.116	681
740.13	639.5
738.143	641.5
736.155	662.5
734.167	665.5
732.179	726.5
730.19	655
728.2	658
726.21	667.5
724.22	670.5
722.229	651.5
720.237	668.5
718.246	696.5
716.253	656.5
714.26	700
712.267	675
710.273	675.5
708.279	670
706.284	678
704.289	636.5
702.293	666.5
700.296	668.5
698.3	692.5
696.303	680.5
694.305	669.5
692.307	667.5
690.307	695
688.308	673
686.309	662.5
684.308	709.5
682.308	685
680.306	698.5
678.304	681.5
676.302	669
674.3	704
672.296	702
670.293	705.5
668.289	709.5
666.284	708
664.278	750
662.273	671
660.266	725
658.26	733.5
656.252	718.5
654.244	711
652.237	730
650.227	690
648.218	735
646.209	742.5
644.198	696.5
642.188	720
640.177	713.5
638.165	716
636.153	731
634.14	758
632.128	750
630.113	750.5
628.099	738.5
626.085	740.5
624.07	719.5
622.054	716
620.038	779.5
618.021	748.5
616.004	743
613.986	723.5
611.968	715.5
609.949	760
607.93	717.5
605.911	739.5
603.891	728
601.87	730.5
599.848	705.5
597.827	733
595.805	735
593.782	748.5
591.759	719
589.735	739.5
587.711	726
585.687	720.5
583.661	768.5
581.636	748.5
579.609	774
577.583	764.5
575.555	757
573.527	733
571.5	745
569.471	792
567.441	729
565.412	775
563.382	792
561.351	805
559.32	782
557.289	845
555.257	799
553.223	833
551.19	833.5
549.157	844
547.122	898
545.088	926.5
543.053	932.5
541.017	967.5
538.981	1069
536.943	1142.5
534.907	1349.5
532.869	1586
530.831	2067.5
528.792	2887
526.752	4302.5
524.713	6293
522.673	7994
520.632	8044
518.591	6696
516.549	4994
514.507	3529
512.464	2409
510.42	1748
508.377	1359
506.332	1184.5
504.288	1087
502.242	1015
500.196	943
498.15	925.5
496.104	934.5
494.056	889.5
492.008	892
489.96	923
487.911	869
485.862	849
483.812	829.5
481.761	846.5
479.71	828.5
477.659	825
475.607	837.5
473.555	845
471.502	850
469.448	831
467.395	797
465.34	788
463.285	818
461.23	799.5
459.174	809
457.118	792
455.061	809.5
453.003	836.5
450.945	814.5
448.887	836.5
446.828	809.5
444.768	840.5
442.708	840.5
440.647	861
438.587	897.5
436.525	871.5
434.463	893.5
432.4	877.5
430.337	886
428.274	871.5
426.21	885
424.145	869.5
422.079	870
420.014	886
417.948	857
415.882	894.5
413.814	825
411.746	846
409.679	894
407.609	841.5
405.54	873.5
403.47	867
401.401	871
399.329	882
397.258	890
395.187	920.5
393.114	876
391.041	902
388.968	866.5
386.895	904
384.82	896.5
382.745	894
380.67	910.5
378.594	926.5
376.517	897.5
374.44	877
372.363	865.5
370.286	898.5
368.207	885
366.128	929
364.049	964.5
361.969	945.5
359.888	900.5
357.807	959
355.725	902.5
353.643	929.5
351.561	895
349.477	949.5
347.394	940
345.31	950
343.226	959
341.141	968
339.055	933.5
336.968	980.5
334.882	1004.5
332.795	1000
330.707	977.5
328.618	999.5
326.53	1041
324.44	1033
322.351	998
320.26	1052.5
318.17	1064
316.078	1107.5
313.987	1185.5
311.895	1159.5
309.802	1200
307.708	1210
305.614	1256
303.52	1223
301.425	1238.5
299.329	1207
297.233	1177.5
295.137	1124
293.039	1108.5
290.942	1096.5
288.844	1083.5
286.745	1095.5
284.647	1023
282.546	1059
280.446	1059
278.346	1022.5
276.245	1012.5
274.143	1015.5
272.041	1023
269.939	1008.5
267.835	1018
265.731	1025.5
263.627	1028.5
261.522	1008.5
259.417	1035.5
257.311	1039
255.204	1009.5
253.098	989
250.99	1020.5
248.882	1018.5
246.774	1020.5
244.664	1034
242.555	1035.5
240.445	1016
238.334	1019.5
236.223	1078.5
234.112	1040.5
232	1053.5
229.888	1055.5
227.775	1050.5
225.661	1059.5
223.546	1027
221.431	1020.5
219.316	1048.5
217.201	1082
215.084	1051.5
212.967	1074
210.85	1014.5
208.732	1041
206.614	1077.5
204.495	1054.5
202.375	1074
200.256	1014.5
198.135	1101.5
196.014	1073
193.893	1055.5
191.771	1048.5
189.648	1067
187.525	1091.5
185.401	1103
183.277	1101
181.152	1067
179.027	1102
176.901	1069.5
174.775	1087
172.648	1113
170.521	1115
168.393	1139
166.265	1142.5
164.136	1148.5
162.007	1128.5
159.876	1163.5
157.746	1166
155.615	1185
153.483	1212
151.351	1231
149.219	1219
147.086	1295
144.952	1294
142.818	1280
140.684	1396
138.548	1316.5
136.413	1334
134.276	1405.5
132.139	1393
130.002	1388.5
127.864	1472
125.725	1453
123.587	1519.5
121.447	1524
119.307	1593.5
117.166	1534.5
115.026	1603.5
112.885	1644
110.743	1622.5
108.6	1712.5
106.456	1726.5
104.313	1649
102.169	1660
100.023	1565
97.8789	1515
95.7328	1375
93.5869	1195
91.4392	1001.5
89.2919	838
87.1447	697.5
84.9959	537
