3528.51	236
3527.23	256
3525.95	274
3524.67	285
3523.39	304
3522.1	288.5
3520.82	302.5
3519.54	281
3518.26	298
3516.97	286
3515.69	294
3514.4	309
3513.12	261
3511.84	286
3510.55	309
3509.26	281
3507.98	313
3506.69	291
3505.41	300
3504.12	316.5
3502.83	324
3501.54	308
3500.26	322
3498.97	326.5
3497.68	333.5
3496.39	357
3495.1	346
3493.81	356.5
3492.52	348
3491.23	327
3489.94	359
3488.65	363.5
3487.36	361
3486.07	355
3484.78	361
3483.49	369
3482.19	373
3480.9	400
3479.61	385
3478.31	387
3477.02	398
3475.73	377.5
3474.43	407
3473.14	400.5
3471.84	433
3470.54	444
3469.25	423
3467.95	445
3466.66	445
3465.36	420
3464.06	400.5
3462.76	409
3461.46	418
3460.17	463
3458.87	437.5
3457.57	491.5
3456.27	439.5
3454.97	432
3453.67	457
3452.37	463
3451.07	474
3449.77	460
3448.47	486
3447.16	486
3445.86	490
3444.56	495
3443.26	470
3441.95	505
3440.65	488
3439.35	532
3438.04	520.5
3436.74	538
3435.43	524.5
3434.13	581
3432.82	559
3431.52	572.5
3430.21	580.5
3428.9	600
3427.6	568
3426.29	628.5
3424.98	626
3423.67	616
3422.36	594
3421.06	632
3419.75	632
3418.44	678.5
3417.13	628
3415.82	691
3414.51	723.5
3413.2	651.5
3411.88	685
3410.57	662
3409.26	720
3407.95	711
3406.64	692.5
3405.32	717
3404.01	749
3402.7	744
3401.38	761
3400.07	725
3398.75	749
3397.44	765
3396.12	767
3394.81	756
3393.49	764
3392.18	748
3390.86	790.5
3389.54	792
3388.23	803
3386.91	802
3385.59	795.5
3384.27	829
3382.95	842
3381.63	840
3380.31	831.5
3378.99	848
3377.67	841.5
3376.35	874.5
3375.03	892.5
3373.71	881
3372.39	897
3371.07	897.5
3369.75	901.5
3368.42	878
3367.1	913.5
3365.78	894.5
3364.45	905
3363.13	918
3361.81	955
3360.48	916
3359.16	976
3357.83	965
3356.51	972
3355.18	985.5
3353.85	960.5
3352.53	954
3351.2	1000
3349.87	978
3348.54	1023
3347.22	983.5
3345.89	980
3344.56	1012.5
3343.23	997
3341.9	1016
3340.57	991
3339.24	1027.5
3337.91	1000
3336.58	1018
3335.25	1021
3333.92	1016
3332.58	1041
3331.25	1009
3329.92	1028
3328.59	1072.5
3327.25	1056
3325.92	1077
3324.58	1052
3323.25	1118
3321.92	1055
3320.58	1082
3319.25	1105
3317.91	1092
3316.57	1070
3315.24	1071
3313.9	1087.5
3312.56	1117
3311.23	1137
3309.89	1093
3308.55	1118
3307.21	1163
3305.87	1117
3304.53	1127
3303.19	1147
3301.85	1133.5
3300.51	1116
3299.17	1160
3297.83	1212
3296.49	1185
3295.15	1185
3293.81	1206
3292.46	1164
3291.12	1173
3289.78	1203
3288.43	1167
3287.09	1210.5
3285.75	1201.5
3284.4	1221
3283.06	1181
3281.71	1228.5
3280.37	1226
3279.02	1209.5
3277.67	1252.5
3276.33	1230
3274.98	1283
3273.63	1301.5
3272.28	1273
3270.94	1283
3269.59	1318.5
3268.24	1291
3266.89	1318.5
3265.54	1294
3264.19	1311
3262.84	1381
3261.49	1406
3260.14	1311
3258.79	1436
3257.44	1457
3256.08	1425.5
3254.73	1492
3253.38	1539.5
3252.03	1566.5
3250.67	1598
3249.32	1604.5
3247.96	1636
3246.61	1668
3245.26	1754
3243.9	1776
3242.54	1849
3241.19	1888
3239.83	1878
3238.48	1937
3237.12	2042
3235.76	2072.5
3234.41	2153.5
3233.05	2223
3231.69	2218.5
3230.33	2220
3228.97	2308
3227.61	2380
3226.25	2413.5
3224.89	2417
3223.53	2535
3222.17	2496
3220.81	2557
3219.45	2585
3218.09	2640
3216.72	2645
3215.36	2682
3214	2708.5
3212.63	2691
3211.27	2716
3209.91	2788
3208.54	2796.5
3207.18	2829
3205.81	2813
3204.45	2832.5
3203.08	2869
3201.71	2876.5
3200.35	2861.5
3198.98	2892
3197.61	2892.5
3196.25	2896.5
3194.88	2898.5
3193.51	2978.5
3192.14	2954.5
3190.77	2941
3189.4	3003
3188.03	2961
3186.66	3037
3185.29	2941
3183.92	3026
3182.55	3067.5
3181.18	2994
3179.81	3032.5
3178.44	3071.5
3177.06	3122
3175.69	3128.5
3174.32	3169
3172.94	3178
3171.57	3203.5
3170.2	3200
3168.82	3288
3167.45	3261
3166.07	3272
3164.69	3359
3163.32	3348
3161.94	3382
3160.56	3370.5
3159.19	3417.5
3157.81	3473.5
3156.43	3462.5
3155.05	3497
3153.67	3537.5
3152.3	3573.5
3150.92	3610
3149.54	3588
3148.16	3633.5
3146.78	3635.5
3145.4	3657.5
3144.01	3722.5
3142.63	3676
3141.25	3769
3139.87	3767
3138.49	3802
3137.1	3807
3135.72	3806
3134.34	3870.5
3132.95	3946.5
3131.57	3929.5
3130.18	3982
3128.8	3961
3127.41	4041
3126.03	4020
3124.64	4056
3123.25	4099
3121.87	4119
3120.48	4100
3119.09	4097.5
3117.7	4188
3116.32	4189.5
3114.93	4211.5
3113.54	4263
3112.15	4252.5
3110.76	4343.5
3109.37	4301.5
3107.98	4351
3106.59	4341.5
3105.2	4333
3103.8	4419
3102.41	4388.5
3101.02	4386
3099.63	4396.5
3098.23	4420
3096.84	4447.5
3095.45	4454
3094.05	4481
3092.66	4531.5
3091.26	4537
3089.87	4569
3088.47	4549.5
3087.08	4537
3085.68	4587.5
3084.28	4577
3082.89	4671
3081.49	4626
3080.09	4642.5
3078.69	4651
3077.3	4634.5
3075.9	4625
3074.5	4681.5
3073.1	4663.5
3071.7	4710.5
3070.3	4681
3068.9	4708
3067.5	4652.5
3066.09	4756
3064.69	4768.5
3063.29	4723
3061.89	4732
3060.48	4741
3059.08	4752
3057.68	4834
3056.27	4763
3054.87	4858.5
3053.46	4812.5
3052.06	4894
3050.65	4881
3049.25	4859
3047.84	4890
3046.44	4901.5
3045.03	4912
3043.62	4908
3042.21	4974
3040.81	4962.5
3039.4	4981.5
3037.99	5012.5
3036.58	4939
3035.17	5028.5
3033.76	5055
3032.35	5045.5
3030.94	5115.5
3029.53	5085.5
3028.12	5089
3026.71	5078
3025.29	5089
3023.88	5132.5
3022.47	5127.5
3021.06	5104
3019.64	5190.5
3018.23	5151
3016.82	5175.5
3015.4	5128
3013.99	5161
3012.57	5130.5
3011.15	5164.5
3009.74	5213
3008.32	5235.5
3006.91	5179
3005.49	5196.5
3004.07	5192
3002.65	5261
3001.24	5289.5
2999.82	5321
2998.4	5335
2996.98	5378
2995.56	5304.5
2994.14	5383.5
2992.72	5408.5
2991.3	5468
2989.88	5473
2988.46	5529.5
2987.03	5508.5
2985.61	5523.5
2984.19	5604
2982.77	5610
2981.34	5691
2979.92	5723.5
2978.49	5725
2977.07	5658
2975.65	5696
2974.22	5765.5
2972.79	5786
2971.37	5838.5
2969.94	5786
2968.52	5851
2967.09	5947
2965.66	5881
2964.23	5911.5
2962.81	5851.5
2961.38	5943
2959.95	5922
2958.52	5931.5
2957.09	5972.5
2955.66	5979
2954.23	5927.5
2952.8	5987.5
2951.37	5964
2949.94	5978
2948.5	5997.5
2947.07	6042
2945.64	6017
2944.21	6002.5
2942.77	6072.5
2941.34	6059.5
2939.91	6097
2938.47	6136
2937.04	6212
2935.6	6162.5
2934.17	6219
2932.73	6219.5
2931.29	6284.5
2929.86	6274
2928.42	6247.5
2926.98	6276
2925.55	6327.5
2924.11	6275
2922.67	6295
2921.23	6284.5
2919.79	6391.5
2918.35	6387
2916.91	6354
2915.47	6334
2914.03	6310.5
2912.59	6458
2911.15	6394.5
2909.71	6373.5
2908.26	6401
2906.82	6362
2905.38	6415
2903.94	6452.5
2902.49	6474.5
2901.05	6470
2899.6	6506
2898.16	6495
2896.71	6446
2895.27	6489
2893.82	6461
2892.38	6501.5
2890.93	6509
2889.48	6560.5
2888.03	6531.5
2886.59	6492
2885.14	6542.5
2883.69	6538.5
2882.24	6591.5
2880.79	6592
2879.34	6551
2877.89	6610
2876.44	6651
2874.99	6601.5
2873.54	6626
2872.09	6588
2870.64	6667.5
2869.18	6573
2867.73	6624
2866.28	6607.5
2864.83	6629
2863.37	6664.5
2861.92	6654
2860.46	6685.5
2859.01	6602.5
2857.55	6638
2856.1	6628
2854.64	6653
2853.19	6643.5
2851.73	6692
2850.27	6728.5
2848.81	6641.5
2847.36	6646
2845.9	6639.5
2844.44	6688
2842.98	6588.5
2841.52	6606
2840.06	6623
2838.6	6627
2837.14	6626.5
2835.68	6646
2834.22	6670.5
2832.76	6614
2831.3	6550.5
2829.83	6598.5
2828.37	6586.5
2826.91	6620.5
2825.44	6605.5
2823.98	6581.5
2822.52	6591.5
2821.05	6566.5
2819.59	6579.5
2818.12	6571.5
2816.66	6485.5
2815.19	6434.5
2813.72	6457
2812.26	6516.5
2810.79	6460.5
2809.32	6384
2807.85	6408
2806.38	6430.5
2804.92	6501
2803.45	6387
2801.98	6457
2800.51	6437.5
2799.04	6454.5
2797.57	6426.5
2796.1	6389.5
2794.62	6317.5
2793.15	6345
2791.68	6393.5
2790.21	6344.5
2788.73	6341
2787.26	6413
2785.79	6461
2784.31	6294
2782.84	6433
2781.36	6405.5
2779.89	6384
2778.41	6407
2776.94	6359
2775.46	6443.5
2773.99	6395
2772.51	6452.5
2771.03	6479
2769.55	6558.5
2768.07	6486.5
2766.6	6381
2765.12	6442.5
2763.64	6467
2762.16	6478
2760.68	6482
2759.2	6542.5
2757.72	6519
2756.24	6574
2754.75	6421
2753.27	6478.5
2751.79	6509
2750.31	6486
2748.82	6495.5
2747.34	6476
2745.86	6491
2744.37	6506.5
2742.89	6445.5
2741.4	6441
2739.92	6427
2738.43	6413.5
2736.94	6430
2735.46	6325
2733.97	6398.5
2732.48	6449
2731	6354.5
2729.51	6452.5
2728.02	6437
2726.53	6382.5
2725.04	6371
2723.55	6403.5
2722.06	6365.5
2720.57	6407.5
2719.08	6363
2717.59	6371
2716.1	6305
2714.61	6369
2713.11	6398
2711.62	6383
2710.13	6435.5
2708.64	6398
2707.14	6437.5
2705.65	6397
2704.15	6259.5
2702.66	6421.5
2701.16	6320
2699.67	6364.5
2698.17	6302
2696.67	6303
2695.18	6296
2693.68	6352
2692.18	6378.5
2690.69	6326
2689.19	6298
2687.69	6305.5
2686.19	6289.5
2684.69	6313.5
2683.19	6316.5
2681.69	6269
2680.19	6237
2678.69	6210
2677.19	6201.5
2675.68	6208
2674.18	6162.5
2672.68	6130
2671.18	6219.5
2669.67	6156
2668.17	6155
2666.66	6137
2665.16	6079.5
2663.66	6123
2662.15	6106.5
2660.64	6148
2659.14	6150.5
2657.63	6111.5
2656.13	6138
2654.62	6085
2653.11	6130
2651.6	6124.5
2650.09	6096
2648.58	6036.5
2647.08	6027
2645.57	6086.5
2644.06	6033.5
2642.55	6018
2641.04	6006.5
2639.52	5996
2638.01	5952.5
2636.5	5918.5
2634.99	5986.5
2633.48	5902.5
2631.96	5870
2630.45	5926
2628.94	5836.5
2627.42	5827.5
2625.91	5895.5
2624.39	5831
2622.88	5877.5
2621.36	5817.5
2619.85	5824.5
2618.33	5813.5
2616.81	5862
2615.3	5816.5
2613.78	5809
2612.26	5865.5
2610.74	5784
2609.22	5800.5
2607.7	5782
2606.18	5775.5
2604.66	5685
2603.14	5656
2601.62	5618.5
2600.1	5643
2598.58	5594
2597.06	5524.5
2595.54	5597
2594.01	5535
2592.49	5559.5
2590.97	5567.5
2589.44	5504.5
2587.92	5553
2586.39	5505.5
2584.87	5496.5
2583.34	5499.5
2581.82	5550
2580.29	5421.5
2578.76	5497.5
2577.24	5456.5
2575.71	5491
2574.18	5541.5
2572.65	5491.5
2571.13	5509.5
2569.6	5486
2568.07	5453
2566.54	5477.5
2565.01	5451
2563.48	5426
2561.95	5464
2560.42	5413
2558.88	5401
2557.35	5350
2555.82	5362.5
2554.29	5295.5
2552.75	5332
2551.22	5294
2549.69	5287.5
2548.15	5343.5
2546.62	5355
2545.08	5291
2543.55	5276.5
2542.01	5306
2540.47	5299
2538.94	5252
2537.4	5268.5
2535.86	5159.5
2534.33	5154
2532.79	5194
2531.25	5146
2529.71	5136
2528.17	5186
2526.63	5092
2525.09	5137
2523.55	5178.5
2522.01	5093.5
2520.47	5074.5
2518.92	5116.5
2517.38	4994.5
2515.84	5011
2514.3	5045.5
2512.75	4927
2511.21	4967.5
2509.67	4957
2508.12	4911
2506.58	4985
2505.03	4868
2503.49	4953.5
2501.94	4905
2500.39	4841.5
2498.85	4900
2497.3	4808.5
2495.75	4873.5
2494.2	4858
2492.65	4869
2491.11	4776
2489.56	4727
2488.01	4793.5
2486.46	4765.5
2484.91	4796
2483.36	4735
2481.8	4790.5
2480.25	4764.5
2478.7	4751.5
2477.15	4641.5
2475.6	4698.5
2474.04	4614
2472.49	4638.5
2470.93	4666
2469.38	4593.5
2467.83	4563.5
2466.27	4527
2464.71	4514.5
2463.16	4485
2461.6	4475
2460.05	4472
2458.49	4457.5
2456.93	4439.5
2455.37	4456
2453.81	4430
2452.26	4365
2450.7	4332
2449.14	4330
2447.58	4248
2446.02	4271
2444.46	4258.5
2442.9	4215
2441.33	4300
2439.77	4194.5
2438.21	4196
2436.65	4211
2435.08	4232.5
2433.52	4227
2431.96	4188.5
2430.39	4180
2428.83	4170.5
2427.26	4170
2425.7	4169.5
2424.13	4132.5
2422.56	4077.5
2421	4146.5
2419.43	4151
2417.86	4087
2416.3	4084
2414.73	4104
2413.16	4024.5
2411.59	4049
2410.02	4046
2408.45	4083
2406.88	4075.5
2405.31	4071
2403.74	4029
2402.17	4036
2400.6	4033
2399.02	4075.5
2397.45	3986.5
2395.88	3939.5
2394.3	3958.5
2392.73	3946
2391.16	4011.5
2389.58	3941
2388.01	3885.5
2386.43	3869.5
2384.86	3905.5
2383.28	3903.5
2381.7	3868
2380.13	3899
2378.55	3900.5
2376.97	3905
2375.39	3878
2373.81	3874.5
2372.23	3812.5
2370.65	3843
2369.07	3876
2367.49	3820
2365.91	3814
2364.33	3770
2362.75	3797
2361.17	3811.5
2359.59	3834.5
2358.01	3771
2356.42	3803
2354.84	3776.5
2353.25	3711
2351.67	3741
2350.09	3734
2348.5	3717
2346.92	3791.5
2345.33	3704.5
2343.74	3708
2342.16	3749
2340.57	3739
2338.98	3724
2337.39	3731
2335.81	3697
2334.22	3691.5
2332.63	3721.5
2331.04	3681
2329.45	3626
2327.86	3657
2326.27	3621.5
2324.68	3607.5
2323.09	3600
2321.49	3636.5
2319.9	3578
2318.31	3610
2316.72	3518
2315.12	3545
2313.53	3562
2311.93	3520.5
2310.34	3520
2308.74	3475
2307.15	3489
2305.55	3495.5
2303.96	3516.5
2302.36	3451.5
2300.76	3414
2299.17	3465.5
2297.57	3421
2295.97	3400
2294.37	3393.5
2292.77	3383.5
2291.17	3359.5
2289.57	3371.5
2287.97	3327
2286.37	3319
2284.77	3343.5
2283.17	3324
2281.57	3264.5
2279.96	3343
2278.36	3280
2276.76	3274
2275.15	3243
2273.55	3289
2271.95	3239
2270.34	3272.5
2268.74	3237
2267.13	3180
2265.52	3236.5
2263.92	3218.5
2262.31	3197.5
2260.7	3185
2259.1	3158
2257.49	3116
2255.88	3165
2254.27	3174
2252.66	3186.5
2251.05	3162.5
2249.44	3148
2247.83	3121
2246.22	3154
2244.61	3131.5
2243	3058
2241.39	3099
2239.77	3136
2238.16	3130.5
2236.55	3132
2234.93	3109
2233.32	3018
2231.7	3060
2230.09	3044
2228.47	2976.5
2226.86	2998.5
2225.24	2989.5
2223.63	3004.5
2222.01	2965
2220.39	3002.5
2218.77	2946
2217.16	2916
2215.54	2952.5
2213.92	2924
2212.3	2850
2210.68	2894
2209.06	2828.5
2207.44	2815
2205.82	2815
2204.19	2873.5
2202.57	2915
2200.95	2815.5
2199.33	2797.5
2197.7	2875
2196.08	2809.5
2194.46	2786.5
2192.83	2740.5
2191.21	2802
2189.58	2811
2187.96	2773
2186.33	2714
2184.7	2773.5
2183.08	2696.5
2181.45	2744
2179.82	2691.5
2178.19	2700
2176.57	2733.5
2174.94	2679
2173.31	2656.5
2171.68	2656.5
2170.05	2642.5
2168.42	2630
2166.79	2664
2165.16	2682
2163.52	2666.5
2161.89	2604
2160.26	2597
2158.63	2580
2156.99	2557.5
2155.36	2587
2153.73	2591
2152.09	2528
2150.46	2547
2148.82	2538
2147.18	2526.5
2145.55	2538
2143.91	2522.5
2142.27	2547
2140.64	2486.5
2139	2483.5
2137.36	2516.5
2135.72	2467
2134.08	2504.5
2132.44	2438
2130.8	2423.5
2129.16	2422.5
2127.52	2326
2125.88	2414
2124.24	2382.5
2122.6	2342
2120.95	2362.5
2119.31	2330
2117.67	2374.5
2116.02	2276
2114.38	2258
2112.74	2306
2111.09	2295
2109.45	2281.5
2107.8	2297
2106.15	2283
2104.51	2269
2102.86	2283
2101.21	2207
2099.56	2235.5
2097.92	2223
2096.27	2176
2094.62	2158.5
2092.97	2225
2091.32	2217.5
2089.67	2178.5
2088.02	2170.5
2086.37	2221.5
2084.72	2152
2083.06	2147
2081.41	2193.5
2079.76	2194.5
2078.1	2128
2076.45	2130
2074.8	2183
2073.14	2218
2071.49	2139.5
2069.83	2166
2068.18	2156
2066.52	2150
2064.86	2121.5
2063.21	2109.5
2061.55	2127.5
2059.89	2129
2058.23	2104
2056.57	2131
2054.92	2089
2053.26	2117
2051.6	2100.5
2049.94	2048.5
2048.27	2047
2046.61	2027.5
2044.95	2073
2043.29	2060
2041.63	2069
2039.97	2054.5
2038.3	1972.5
2036.64	1988.5
2034.97	1988
2033.31	1979
2031.64	1947
2029.98	1956
2028.31	1952
2026.65	1959
2024.98	1928
2023.31	1951
2021.65	1916.5
2019.98	1934
2018.31	1893
2016.64	1917
2014.97	1859.5
2013.3	1876
2011.63	1885.5
2009.96	1825
2008.29	1849.5
2006.62	1821
2004.95	1829.5
2003.28	1831.5
2001.6	1813
1999.93	1806.5
1998.26	1790.5
1996.58	1820
1994.91	1804.5
1993.24	1770.5
1991.56	1815
1989.89	1736
1988.21	1747.5
1986.53	1779
1984.86	1750.5
1983.18	1739
1981.5	1747.5
1979.82	1714
1978.15	1720.5
1976.47	1727.5
1974.79	1691
1973.11	1736
1971.43	1737
1969.75	1713
1968.07	1733
1966.38	1704
1964.7	1663
1963.02	1686
1961.34	1677
1959.66	1661
1957.97	1662
1956.29	1630
1954.6	1642.5
1952.92	1626.5
1951.23	1641.5
1949.55	1649
1947.86	1611
1946.18	1619
1944.49	1610.5
1942.8	1590
1941.11	1582.5
1939.43	1583
1937.74	1591
1936.05	1595
1934.36	1583
1932.67	1574
1930.98	1544
1929.29	1578.5
1927.6	1586.5
1925.91	1513.5
1924.21	1517
1922.52	1518.5
1920.83	1545
1919.14	1446
1917.44	1497.5
1915.75	1498.5
1914.05	1474
1912.36	1498
1910.66	1482
1908.97	1458
1907.27	1485.5
1905.58	1467.5
1903.88	1437
1902.18	1446
1900.48	1427
1898.79	1416.5
1897.09	1427
1895.39	1413
1893.69	1391
1891.99	1393.5
1890.29	1384
1888.59	1379
1886.89	1381.5
1885.18	1332
1883.48	1400.5
1881.78	1382
1880.08	1367
1878.37	1313.5
1876.67	1353.5
1874.96	1306
1873.26	1296.5
1871.55	1296
1869.85	1331
1868.14	1332
1866.44	1289.5
1864.73	1262
1863.02	1272
1861.32	1257.5
1859.61	1218
1857.9	1262
1856.19	1256.5
1854.48	1252
1852.77	1258
1851.06	1277.5
1849.35	1267
1847.64	1216
1845.93	1214.5
1844.21	1225
1842.5	1274.5
1840.79	1182
1839.08	1222
1837.36	1214
1835.65	1225
1833.93	1196
1832.22	1208
1830.5	1208
1828.79	1213
1827.07	1212
1825.36	1162.5
1823.64	1166
1821.92	1164
1820.2	1138
1818.48	1149
1816.77	1162
1815.05	1162
1813.33	1100
1811.61	1130.5
1809.89	1097
1808.16	1127.5
1806.44	1136.5
1804.72	1126.5
1803	1102
1801.28	1118.5
1799.55	1101
1797.83	1126.5
1796.11	1082
1794.38	1114
1792.66	1069
1790.93	1089
1789.21	1051.5
1787.48	1093
1785.75	1082.5
1784.03	1060
1782.3	1085.5
1780.57	1041.5
1778.84	1030
1777.11	1053
1775.38	994
1773.66	1049.5
1771.93	1038
1770.19	1045
1768.46	1047
1766.73	1049
1765	1066.5
1763.27	1001
1761.54	1018
1759.8	1011
1758.07	1002
1756.34	1036
1754.6	1036
1752.87	1059
1751.13	1010
1749.4	1035.5
1747.66	1047.5
1745.92	1020
1744.19	1001
1742.45	1036
1740.71	994
1738.97	1003.5
1737.23	998
1735.49	975
1733.75	991.5
1732.01	984.5
1730.27	1000
1728.53	967.5
1726.79	960
1725.05	1004
1723.31	934.5
1721.57	932
1719.82	960
1718.08	918
1716.34	936
1714.59	940.5
1712.85	925
1711.1	955.5
1709.36	942.5
1707.61	898
1705.86	901
1704.12	917
1702.37	894.5
1700.62	862
1698.87	885
1697.12	911
1695.37	884
1693.62	884.5
1691.87	865.5
1690.12	878
1688.37	858
1686.62	876
1684.87	856
1683.12	848.5
1681.36	854.5
1679.61	866
1677.86	864
1676.1	902
1674.35	875
1672.59	819.5
1670.84	847
1669.08	832
1667.33	906
1665.57	913
1663.81	908
1662.06	935
1660.3	934.5
1658.54	909
1656.78	963
1655.02	910.5
1653.26	950.5
1651.5	906.5
1649.74	894
1647.98	841
1646.22	831.5
1644.46	861.5
1642.7	840.5
1640.93	818.5
1639.17	825.5
1637.41	811
1635.64	811
1633.88	820
1632.11	783
1630.35	804
1628.58	802
1626.81	787
1625.05	764
1623.28	778
1621.51	759.5
1619.75	736.5
1617.98	769.5
1616.21	784
1614.44	741
1612.67	766
1610.9	734
1609.13	739.5
1607.36	739
1605.58	711
1603.81	781.5
1602.04	777
1600.27	739
1598.49	733.5
1596.72	764
1594.95	720
1593.17	764
1591.4	734.5
1589.62	710.5
1587.84	732
1586.07	712
1584.29	684
1582.51	701
1580.74	708
1578.96	712
1577.18	707
1575.4	712.5
1573.62	702
1571.84	704.5
1570.06	689.5
1568.28	681
1566.5	688.5
1564.72	728
1562.93	681
1561.15	698
1559.37	678
1557.58	661
1555.8	714.5
1554.02	669
1552.23	679
1550.45	662
1548.66	635
1546.87	672
1545.09	677
1543.3	665
1541.51	663
1539.72	652
1537.94	623
1536.15	647.5
1534.36	616
1532.57	630
1530.78	637
1528.99	658
1527.2	631
1525.4	622
1523.61	638
1521.82	621
1520.03	619
1518.23	606
1516.44	633
1514.65	616
1512.85	628
1511.06	651
1509.26	632
1507.46	600
1505.67	627.5
1503.87	596
1502.07	615
1500.28	645.5
1498.48	632
1496.68	625
1494.88	624
1493.08	655
1491.28	661
1489.48	655.5
1487.68	609
1485.88	640
1484.08	667.5
1482.27	636
1480.47	671.5
1478.67	653
1476.86	656
1475.06	671
1473.25	706
1471.45	732
1469.64	716.5
1467.84	745
1466.03	809.5
1464.23	807
1462.42	778
1460.61	834
1458.8	832
1456.99	816
1455.18	849
1453.37	867
1451.56	890
1449.75	858
1447.94	911.5
1446.13	911
1444.32	958
1442.51	936.5
1440.7	963
1438.88	906
1437.07	919
1435.26	854
1433.44	847
1431.63	791.5
1429.81	721
1427.99	684
1426.18	700
1424.36	682.5
1422.54	647
1420.73	637
1418.91	636
1417.09	617
1415.27	616
1413.45	597.5
1411.63	627.5
1409.81	580
1407.99	523
1406.17	568.5
1404.35	559
1402.53	572.5
1400.7	565
1398.88	535
1397.06	592.5
1395.23	563
1393.41	515
1391.58	520
1389.76	547.5
1387.93	571
1386.11	525.5
1384.28	548
1382.45	522.5
1380.62	514
1378.8	564
1376.97	528
1375.14	561.5
1373.31	541.5
1371.48	573
1369.65	568
1367.82	524
1365.99	553
1364.16	547
1362.32	508
1360.49	540.5
1358.66	511.5
1356.82	541
1354.99	570.5
1353.16	526.5
1351.32	533
1349.48	530
1347.65	514
1345.81	543
1343.98	518
1342.14	508.5
1340.3	546.5
1338.46	533
1336.62	494
1334.79	536.5
1332.95	536
1331.11	569
1329.27	549
1327.42	551
1325.58	580
1323.74	613
1321.9	579
1320.06	613
1318.21	598
1316.37	623
1314.53	677
1312.68	636
1310.84	659
1308.99	691.5
1307.15	718.5
1305.3	730
1303.45	700
1301.61	737
1299.76	726
1297.91	721
1296.06	705.5
1294.21	666
1292.36	616.5
1290.51	563
1288.66	578
1286.81	585
1284.96	569
1283.11	596
1281.26	597
1279.4	607.5
1277.55	584
1275.7	580
1273.84	550
1271.99	589
1270.13	603
1268.28	556.5
1266.42	566
1264.56	582
1262.71	551
1260.85	585
1258.99	536
1257.13	549
1255.27	520
1253.41	548
1251.56	497
1249.7	527
1247.83	523.5
1245.97	472
1244.11	490
1242.25	490.5
1240.39	494.5
1238.52	504
1236.66	470
1234.8	483
1232.93	475
1231.07	465
1229.2	465
1227.34	494
1225.47	467
1223.6	434
1221.74	433
1219.87	465
1218	463.5
1216.13	404
1214.26	447.5
1212.39	463.5
1210.53	408
1208.65	428.5
1206.78	423.5
1204.91	428.5
1203.04	456
1201.17	422
1199.3	429
1197.42	424
1195.55	422.5
1193.68	423
1191.8	429
1189.93	421.5
1188.05	420.5
1186.17	438.5
1184.3	444.5
1182.42	434
1180.54	415.5
1178.67	428
1176.79	448.5
1174.91	446.5
1173.03	428.5
1171.15	425
1169.27	388
1167.39	429
1165.51	408
1163.63	436.5
1161.75	458
1159.86	418
1157.98	421.5
1156.1	457
1154.21	404
1152.33	423
1150.44	420
1148.56	423
1146.67	425.5
1144.79	420
1142.9	439
1141.01	453.5
1139.12	412
1137.24	466
1135.35	446
1133.46	446
1131.57	489.5
1129.68	476.5
1127.79	523.5
1125.9	483
1124.01	478
1122.12	511
1120.22	478.5
1118.33	478
1116.44	453
1114.54	477.5
1112.65	450
1110.75	485.5
1108.86	501
1106.96	467.5
1105.07	501.5
1103.17	479
1101.27	448
1099.38	485
1097.48	525.5
1095.58	519.5
1093.68	531
1091.78	547.5
1089.88	562
1087.98	582
1086.08	585
1084.18	604.5
1082.28	567
1080.38	549
1078.47	583
1076.57	563
1074.67	542.5
1072.76	545
1070.86	532.5
1068.95	552.5
1067.05	555
1065.14	576.5
1063.24	545
1061.33	550
1059.42	543
1057.51	515.5
1055.6	495
1053.7	491
1051.79	498
1049.88	479
1047.97	461
1046.06	499
1044.14	487
1042.23	447
1040.32	523.5
1038.41	512.5
1036.5	467
1034.58	488
1032.67	470
1030.75	508
1028.84	458
1026.92	470
1025.01	467.5
1023.09	487
1021.17	474.5
1019.26	520
1017.34	479
1015.42	488
1013.5	508.5
1011.58	464
1009.66	489.5
1007.74	506.5
1005.82	493
1003.9	495
1001.98	493
1000.06	506
998.134	510.5
996.212	515.5
994.288	541
992.364	553
990.44	563
988.515	577
986.589	589
984.663	616.5
982.737	565
980.81	624
978.883	628
976.955	657
975.027	669
973.098	644
971.169	646
969.239	644
967.308	671
965.378	671
963.447	666
961.516	662.5
959.583	662
957.65	709.5
955.718	707
953.784	696.5
951.85	666
949.916	743
947.981	725.5
946.045	716
944.109	732.5
942.173	782.5
940.236	764.5
938.298	737
936.36	752
934.422	733.5
932.484	663
930.544	645.5
928.604	630
926.664	584
924.724	577
922.782	548
920.84	526
918.898	542.5
916.955	535.5
915.012	494.5
913.068	532
911.124	509
909.18	540
907.235	555.5
905.289	506
903.343	525.5
901.397	532.5
899.45	530
897.502	522.5
895.554	559
893.605	562.5
891.657	556
889.707	568
887.758	571.5
885.807	537
883.856	559
881.905	584.5
879.953	556
878.001	550
876.048	565.5
874.094	560
872.14	591.5
870.186	583.5
868.232	574.5
866.276	602.5
864.321	562
862.365	553
860.408	581.5
858.451	548
856.493	565
854.535	539
852.576	548
850.617	511.5
848.658	543.5
846.698	566.5
844.737	535
842.776	555.5
840.814	543
838.852	553
836.89	516
834.927	503
832.963	537
830.999	520.5
829.035	493
827.07	508
825.105	502
823.139	486
821.172	480
819.206	498
817.238	457
815.27	475.5
813.301	484
811.333	452.5
809.363	447
807.394	459.5
805.424	478.5
803.453	419
801.482	436.5
799.509	412
797.538	411
795.565	449
793.592	416
791.618	407
789.643	423
787.669	415
785.693	434.5
783.718	409
781.742	428
779.765	438.5
777.788	409
775.811	427.5
773.832	435
771.853	412.5
769.875	426.5
767.895	417
765.915	406
763.934	365.5
761.953	449
759.972	421.5
757.99	408
756.007	429.5
754.024	408
752.041	428.5
750.056	422
748.072	418
746.087	418
744.102	429
742.116	423.5
740.13	423
738.143	418.5
736.155	407
734.167	411
732.179	439
730.19	398.5
728.2	403.5
726.21	456
724.22	415.5
722.229	399
720.237	432
718.246	463.5
716.253	410
714.26	446.5
712.267	377
710.273	402.5
708.279	401.5
706.284	416.5
704.289	408.5
702.293	404.5
700.296	417
698.3	410
696.303	435
694.305	409.5
692.307	393.5
690.307	418
688.308	420.5
686.309	428.5
684.308	411
682.308	403
680.306	433
678.304	442.5
676.302	418
674.3	444
672.296	464
670.293	440
668.289	436
666.284	440
664.278	466
662.273	447
660.266	447
658.26	429
656.252	451.5
654.244	452.5
652.237	425.5
650.227	420.5
648.218	461.5
646.209	445
644.198	414
642.188	482
640.177	430.5
638.165	463.5
636.153	479.5
634.14	472
632.128	445
630.113	465
628.099	445.5
626.085	461.5
624.07	468
622.054	487.5
620.038	505
618.021	499
616.004	462
613.986	470
611.968	493.5
609.949	498.5
607.93	468.5
605.911	476
603.891	473
601.87	429.5
599.848	459
597.827	466.5
595.805	496.5
593.782	472.5
591.759	458.5
589.735	461.5
587.711	472.5
585.687	472.5
583.661	480.5
581.636	436.5
579.609	446
577.583	452
575.555	472
573.527	485
571.5	473
569.471	502.5
567.441	442
565.412	494
563.382	512.5
561.351	500.5
559.32	523.5
557.289	563
555.257	498.5
553.223	545.5
551.19	534
549.157	586
547.122	603
545.088	604
543.053	665
541.017	659
538.981	762
536.943	848
534.907	1056.5
532.869	1360.5
530.831	1837
528.792	2674
526.752	4245
524.713	6265
522.673	7976.5
520.632	8055
518.591	6599
516.549	4769
514.507	3260
512.464	2149
510.42	1503
508.377	1104
506.332	921
504.288	796
502.242	723.5
500.196	673
498.15	635
496.104	668
494.056	603
492.008	610
489.96	614.5
487.911	595.5
485.862	573.5
483.812	580.5
481.761	565.5
479.71	583
477.659	568.5
475.607	522
473.555	555.5
471.502	554.5
469.448	534.5
467.395	547.5
465.34	554
463.285	543.5
461.23	534
459.174	547.5
457.118	541.5
455.061	566
453.003	536
450.945	575.5
448.887	552
446.828	538
444.768	540.5
442.708	564
440.647	579.5
438.587	605
436.525	589
434.463	581.5
432.4	578
430.337	607
428.274	589.5
426.21	605
424.145	606.5
422.079	598
420.014	628.5
417.948	563
415.882	618
413.814	561.5
411.746	587
409.679	601.5
407.609	604
405.54	610
403.47	620
401.401	605.5
399.329	632
397.258	601.5
395.187	630.5
393.114	626.5
391.041	619.5
388.968	620
386.895	631
384.82	624
382.745	630
380.67	617
378.594	652
376.517	601.5
374.44	638
372.363	649.5
370.286	634
368.207	636
366.128	626
364.049	623.5
361.969	674.5
359.888	693
357.807	653.5
355.725	652.5
353.643	660
351.561	639.5
349.477	679
347.394	665.5
345.31	671
343.226	702.5
341.141	654.5
339.055	704
336.968	708
334.882	718
332.795	720
330.707	715.5
328.618	708.5
326.53	752
324.44	744
322.351	746
320.26	778.5
318.17	813.5
316.078	841.5
313.987	879
311.895	892
309.802	946
307.708	935
305.614	1001
303.52	973.5
301.425	958.5
299.329	947.5
297.233	919.5
295.137	895
293.039	855
290.942	838.5
288.844	834.5
286.745	828.5
284.647	817.5
282.546	800.5
280.446	836
278.346	799
276.245	808
274.143	778
272.041	779
269.939	764
267.835	777.5
265.731	769.5
263.627	789.5
261.522	764
259.417	785
257.311	795.5
255.204	793.5
253.098	789.5
250.99	765
248.882	837.5
246.774	781.5
244.664	779
242.555	841.5
240.445	808.5
238.334	826
236.223	862
234.112	842.5
232	829
229.888	839.5
227.775	846
225.661	790
223.546	850
221.431	825.5
219.316	821.5
217.201	889.5
215.084	823.5
212.967	819.5
210.85	832
208.732	889.5
206.614	839
204.495	837
202.375	882
200.256	848
198.135	868
196.014	845
193.893	870
191.771	845
189.648	845.5
187.525	832
185.401	858.5
183.277	869.5
181.152	796
179.027	855.5
176.901	828.5
174.775	861.5
172.648	909.5
170.521	872.5
168.393	906
166.265	888
164.136	883.5
162.007	931
159.876	961
157.746	951.5
155.615	948
153.483	981.5
151.351	1010.5
149.219	1017
147.086	1034
144.952	1056
142.818	1061.5
140.684	1127
138.548	1096.5
136.413	1155
134.276	1176.5
132.139	1136
130.002	1223
127.864	1271
125.725	1324
123.587	1376
121.447	1332
119.307	1387.5
117.166	1429
115.026	1474
112.885	1553
110.743	1571
108.6	1623
106.456	1615.5
104.313	1598
102.169	1593.5
100.023	1542.5
97.8789	1423.5
95.7328	1349.5
93.5869	1135
91.4392	1005.5
89.2919	853.5
87.1447	653
84.9959	491
