3528.51	274
3527.23	301
3525.95	320.5
3524.67	317
3523.39	310.5
3522.1	315
3520.82	331.5
3519.54	323.5
3518.26	321.5
3516.97	335.5
3515.69	324.5
3514.4	320.5
3513.12	342.5
3511.84	330
3510.55	344
3509.26	333
3507.98	301.5
3506.69	330
3505.41	360.5
3504.12	315
3502.83	296
3501.54	375.5
3500.26	348.5
3498.97	356.5
3497.68	365.5
3496.39	341
3495.1	345
3493.81	367
3492.52	348
3491.23	349.5
3489.94	378
3488.65	383
3487.36	367
3486.07	382
3484.78	418
3483.49	382
3482.19	408
3480.9	390
3479.61	421
3478.31	409
3477.02	436.5
3475.73	457
3474.43	421
3473.14	431
3471.84	422.5
3470.54	457.5
3469.25	455
3467.95	452.5
3466.66	453
3465.36	483.5
3464.06	464.5
3462.76	482
3461.46	485.5
3460.17	482
3458.87	455
3457.57	448.5
3456.27	488
3454.97	455.5
3453.67	486.5
3452.37	479
3451.07	487
3449.77	477
3448.47	463
3447.16	509
3445.86	513
3444.56	529.5
3443.26	506.5
3441.95	534
3440.65	524.5
3439.35	498
3438.04	547
3436.74	549.5
3435.43	551
3434.13	569
3432.82	593
3431.52	564
3430.21	572
3428.9	595
3427.6	631.5
3426.29	616.5
3424.98	642.5
3423.67	663
3422.36	641.5
3421.06	649.5
3419.75	684.5
3418.44	686.5
3417.13	698
3415.82	669.5
3414.51	706.5
3413.2	741
3411.88	732
3410.57	775
3409.26	698
3407.95	745
3406.64	753
3405.32	773
3404.01	739
3402.7	804
3401.38	770
3400.07	767
3398.75	773
3397.44	796
3396.12	807
3394.81	803.5
3393.49	812
3392.18	847.5
3390.86	794
3389.54	858.5
3388.23	782
3386.91	861
3385.59	829
3384.27	852
3382.95	876
3381.63	874
3380.31	885.5
3378.99	879
3377.67	897
3376.35	955
3375.03	922.5
3373.71	960
3372.39	905.5
3371.07	934.5
3369.75	950.5
3368.42	946
3367.1	930
3365.78	958.5
3364.45	975.5
3363.13	985.5
3361.81	979
3360.48	989.5
3359.16	999
3357.83	982.5
3356.51	1001.5
3355.18	1030.5
3353.85	1034
3352.53	1039
3351.2	997
3349.87	1015
3348.54	1035
3347.22	994
3345.89	1048.5
3344.56	1045
3343.23	1027
3341.9	1054
3340.57	1066.5
3339.24	1054
3337.91	1040.5
3336.58	1074
3335.25	1061.5
3333.92	1086.5
3332.58	1079
3331.25	1050
3329.92	1060.5
3328.59	1081
3327.25	1092
3325.92	1100
3324.58	1066.5
3323.25	1102.5
3321.92	1103
3320.58	1123
3319.25	1115
3317.91	1151
3316.57	1132.5
3315.24	1102
3313.9	1149
3312.56	1122.5
3311.23	1169.5
3309.89	1129
3308.55	1182
3307.21	1140
3305.87	1157
3304.53	1174.5
3303.19	1197.5
3301.85	1189
3300.51	1182.5
3299.17	1176.5
3297.83	1209.5
3296.49	1208
3295.15	1209
3293.81	1191.5
3292.46	1211.5
3291.12	1222
3289.78	1231.5
3288.43	1240
3287.09	1222
3285.75	1215
3284.4	1214.5
3283.06	1231
3281.71	1235
3280.37	1261.5
3279.02	1211
3277.67	1282
3276.33	1270
3274.98	1260
3273.63	1298
3272.28	1273.5
3270.94	1282
3269.59	1256
3268.24	1299
3266.89	1298
3265.54	1313.5
3264.19	1334
3262.84	1328.5
3261.49	1360
3260.14	1366
3258.79	1395.5
3257.44	1377.5
3256.08	1408.5
3254.73	1452.5
3253.38	1479.5
3252.03	1478.5
3250.67	1534
3249.32	1525
3247.96	1577
3246.61	1607
3245.26	1606
3243.9	1676.5
3242.54	1735.5
3241.19	1738
3239.83	1732
3238.48	1839.5
3237.12	1872.5
3235.76	1878.5
3234.41	1962
3233.05	2022
3231.69	2081.5
3230.33	2087.5
3228.97	2154
3227.61	2204
3226.25	2253
3224.89	2289.5
3223.53	2312
3222.17	2425
3220.81	2474
3219.45	2484.5
3218.09	2578.5
3216.72	2626
3215.36	2590
3214	2646.5
3212.63	2680.5
3211.27	2746.5
3209.91	2746
3208.54	2787.5
3207.18	2824.5
3205.81	2878.5
3204.45	2904
3203.08	2961.5
3201.71	2908
3200.35	2922.5
3198.98	2942.5
3197.61	2957
3196.25	3001
3194.88	3004
3193.51	2998.5
3192.14	3075.5
3190.77	3091.5
3189.4	3009.5
3188.03	3096
3186.66	3094
3185.29	3077.5
3183.92	3096.5
3182.55	3116.5
3181.18	3121
3179.81	3122.5
3178.44	3176
3177.06	3156.5
3175.69	3193
3174.32	3210.5
3172.94	3224
3171.57	3226.5
3170.2	3290
3168.82	3306.5
3167.45	3336.5
3166.07	3376.5
3164.69	3370
3163.32	3420.5
3161.94	3443.5
3160.56	3451.5
3159.19	3513
3157.81	3497.5
3156.43	3549.5
3155.05	3544
3153.67	3588.5
3152.3	3675.5
3150.92	3703
3149.54	3722
3148.16	3721
3146.78	3728.5
3145.4	3769
3144.01	3745
3142.63	3821
3141.25	3810
3139.87	3784
3138.49	3865.5
3137.1	3870.5
3135.72	3912.5
3134.34	3909
3132.95	3956.5
3131.57	4032
3130.18	4051.5
3128.8	3999.5
3127.41	4151
3126.03	4042
3124.64	4155
3123.25	4127
3121.87	4137
3120.48	4243.5
3119.09	4218.5
3117.7	4278.5
3116.32	4284
3114.93	4298
3113.54	4296
3112.15	4407
3110.76	4407
3109.37	4394
3107.98	4403
3106.59	4364.5
3105.2	4470
3103.8	4524
3102.41	4494
3101.02	4499
3099.63	4487
3098.23	4613
3096.84	4594.5
3095.45	4523.5
3094.05	4652.5
3092.66	4590
3091.26	4622
3089.87	4644.5
3088.47	4695.5
3087.08	4696.5
3085.68	4654.5
3084.28	4670.5
3082.89	4723.5
3081.49	4731
3080.09	4771
3078.69	4748
3077.3	4718
3075.9	4798.5
3074.5	4835.5
3073.1	4791
3071.7	4884.5
3070.3	4851
3068.9	4845
3067.5	4865
3066.09	4918
3064.69	4912.5
3063.29	4889.5
3061.89	4939
3060.48	4936
3059.08	4903
3057.68	4886.5
3056.27	4974.5
3054.87	4965
3053.46	4981
3052.06	5001
3050.65	5038.5
3049.25	4990.5
3047.84	4998.5
3046.44	5037
3045.03	5068.5
3043.62	5135.5
3042.21	5039
3040.81	5061
3039.4	5123
3037.99	5200
3036.58	5133.5
3035.17	5181
3033.76	5214.5
3032.35	5212.5
3030.94	5203
3029.53	5176
3028.12	5284.5
3026.71	5216.5
3025.29	5227
3023.88	5214
3022.47	5230
3021.06	5266.5
3019.64	5266.5
3018.23	5229.5
3016.82	5278.5
3015.4	5283.5
3013.99	5276
3012.57	5298.5
3011.15	5354
3009.74	5304.5
3008.32	5299
3006.91	5345.5
3005.49	5307.5
3004.07	5386
3002.65	5407.5
3001.24	5393
2999.82	5408.5
2998.4	5405.5
2996.98	5435
2995.56	5463.5
2994.14	5509
2992.72	5522
2991.3	5540.5
2989.88	5431.5
2988.46	5580.5
2987.03	5593.5
2985.61	5629.5
2984.19	5612
2982.77	5727.5
2981.34	5717
2979.92	5790.5
2978.49	5753.5
2977.07	5792.5
2975.65	5869
2974.22	5851
2972.79	5901
2971.37	5846.5
2969.94	5944
2968.52	6034
2967.09	5964
2965.66	6043
2964.23	6007.5
2962.81	5985.5
2961.38	6060.5
2959.95	6094.5
2958.52	6175.5
2957.09	6046
2955.66	6122
2954.23	6105.5
2952.8	6113.5
2951.37	6211.5
2949.94	6127
2948.5	6157.5
2947.07	6176
2945.64	6214.5
2944.21	6262.5
2942.77	6199.5
2941.34	6319
2939.91	6226.5
2938.47	6305.5
2937.04	6331
2935.6	6336.5
2934.17	6320.5
2932.73	6364.5
2931.29	6381
2929.86	6446.5
2928.42	6384
2926.98	6418
2925.55	6489
2924.11	6487.5
2922.67	6411
2921.23	6498.5
2919.79	6490.5
2918.35	6483.5
2916.91	6486
2915.47	6504.5
2914.03	6538.5
2912.59	6539
2911.15	6631
2909.71	6480
2908.26	6620
2906.82	6526
2905.38	6579
2903.94	6581
2902.49	6620
2901.05	6614.5
2899.6	6700
2898.16	6625
2896.71	6643.5
2895.27	6687.5
2893.82	6673
2892.38	6600.5
2890.93	6671
2889.48	6660
2888.03	6703
2886.59	6685.5
2885.14	6672.5
2883.69	6664
2882.24	6646
2880.79	6685
2879.34	6703
2877.89	6729.5
2876.44	6667
2874.99	6724.5
2873.54	6672.5
2872.09	6701.5
2870.64	6776.5
2869.18	6805
2867.73	6765
2866.28	6787
2864.83	6827
2863.37	6734.5
2861.92	6738
2860.46	6784
2859.01	6799.5
2857.55	6797
2856.1	6743.5
2854.64	6715.5
2853.19	6823.5
2851.73	6743
2850.27	6674
2848.81	6807.5
2847.36	6793
2845.9	6816.5
2844.44	6806
2842.98	6808.5
2841.52	6754
2840.06	6778
2838.6	6786
2837.14	6799.5
2835.68	6760
2834.22	6733
2832.76	6736
2831.3	6723.5
2829.83	6691
2828.37	6729
2826.91	6807
2825.44	6673
2823.98	6660.5
2822.52	6733
2821.05	6705.5
2819.59	6694.5
2818.12	6667
2816.66	6625
2815.19	6590
2813.72	6619
2812.26	6589.5
2810.79	6594.5
2809.32	6571.5
2807.85	6635.5
2806.38	6599
2804.92	6522.5
2803.45	6566
2801.98	6571.5
2800.51	6559.5
2799.04	6626.5
2797.57	6546
2796.1	6569
2794.62	6590.5
2793.15	6618
2791.68	6528.5
2790.21	6436
2788.73	6570.5
2787.26	6507
2785.79	6514
2784.31	6445.5
2782.84	6463.5
2781.36	6504
2779.89	6521.5
2778.41	6535.5
2776.94	6541.5
2775.46	6522.5
2773.99	6568
2772.51	6583
2771.03	6572
2769.55	6468.5
2768.07	6532
2766.6	6562
2765.12	6562
2763.64	6549.5
2762.16	6461
2760.68	6506
2759.2	6506.5
2757.72	6499.5
2756.24	6433.5
2754.75	6480.5
2753.27	6452
2751.79	6462
2750.31	6527.5
2748.82	6542
2747.34	6450
2745.86	6516
2744.37	6523
2742.89	6447
2741.4	6425.5
2739.92	6420.5
2738.43	6343.5
2736.94	6409
2735.46	6416
2733.97	6353.5
2732.48	6411
2731	6442.5
2729.51	6428.5
2728.02	6344.5
2726.53	6489
2725.04	6477.5
2723.55	6406.5
2722.06	6422
2720.57	6489.5
2719.08	6446.5
2717.59	6380
2716.1	6420
2714.61	6534
2713.11	6431.5
2711.62	6474
2710.13	6461
2708.64	6381
2707.14	6359
2705.65	6408.5
2704.15	6386
2702.66	6364
2701.16	6254
2699.67	6315.5
2698.17	6300.5
2696.67	6313
2695.18	6293.5
2693.68	6303.5
2692.18	6297
2690.69	6267
2689.19	6249
2687.69	6221
2686.19	6226
2684.69	6206
2683.19	6265.5
2681.69	6197.5
2680.19	6226.5
2678.69	6272.5
2677.19	6217
2675.68	6217.5
2674.18	6174.5
2672.68	6105.5
2671.18	6200.5
2669.67	6100.5
2668.17	6088.5
2666.66	6136
2665.16	6120
2663.66	6183
2662.15	6109.5
2660.64	6166
2659.14	6096
2657.63	6095.5
2656.13	6016.5
2654.62	6038
2653.11	6055
2651.6	6035
2650.09	6055.5
2648.58	6101.5
2647.08	5965.5
2645.57	6027
2644.06	6029.5
2642.55	6007
2641.04	6001
2639.52	6021.5
2638.01	6012.5
2636.5	6020
2634.99	5997
2633.48	5909
2631.96	5994.5
2630.45	5939
2628.94	5962.5
2627.42	5858
2625.91	5901
2624.39	5901
2622.88	5906
2621.36	5904
2619.85	5937.5
2618.33	5902.5
2616.81	5884.5
2615.3	5889.5
2613.78	5942.5
2612.26	5930.5
2610.74	5886
2609.22	5798.5
2607.7	5790
2606.18	5801
2604.66	5737.5
2603.14	5725
2601.62	5828.5
2600.1	5726.5
2598.58	5696.5
2597.06	5686.5
2595.54	5635.5
2594.01	5635.5
2592.49	5598.5
2590.97	5748.5
2589.44	5671
2587.92	5627
2586.39	5631.5
2584.87	5678
2583.34	5601.5
2581.82	5595
2580.29	5625
2578.76	5563
2577.24	5523.5
2575.71	5574
2574.18	5621.5
2572.65	5566
2571.13	5572
2569.6	5535
2568.07	5551
2566.54	5450
2565.01	5526
2563.48	5457
2561.95	5473
2560.42	5498
2558.88	5504
2557.35	5404
2555.82	5430
2554.29	5424.5
2552.75	5412
2551.22	5373.5
2549.69	5351.5
2548.15	5465.5
2546.62	5396
2545.08	5377.5
2543.55	5385.5
2542.01	5301
2540.47	5325.5
2538.94	5271.5
2537.4	5286
2535.86	5306.5
2534.33	5236.5
2532.79	5274
2531.25	5273.5
2529.71	5196.5
2528.17	5241
2526.63	5149.5
2525.09	5201
2523.55	5149
2522.01	5172
2520.47	5114.5
2518.92	5170
2517.38	5126.5
2515.84	5117
2514.3	5124.5
2512.75	5097.5
2511.21	5062
2509.67	5053
2508.12	5051
2506.58	5035
2505.03	4957
2503.49	5035
2501.94	5008
2500.39	4996
2498.85	4906
2497.3	4919
2495.75	4909
2494.2	4873
2492.65	4851
2491.11	4877.5
2489.56	4894
2488.01	4785.5
2486.46	4838.5
2484.91	4815
2483.36	4780.5
2481.8	4771.5
2480.25	4791.5
2478.7	4726
2477.15	4804.5
2475.6	4682.5
2474.04	4639.5
2472.49	4695
2470.93	4658
2469.38	4600
2467.83	4664.5
2466.27	4589
2464.71	4599
2463.16	4551
2461.6	4533
2460.05	4523
2458.49	4538
2456.93	4540.5
2455.37	4509
2453.81	4497.5
2452.26	4480
2450.7	4525
2449.14	4453.5
2447.58	4426
2446.02	4434.5
2444.46	4337.5
2442.9	4436.5
2441.33	4332.5
2439.77	4342.5
2438.21	4312
2436.65	4326.5
2435.08	4295.5
2433.52	4246
2431.96	4289
2430.39	4257
2428.83	4176
2427.26	4250
2425.7	4216
2424.13	4209
2422.56	4231.5
2421	4156
2419.43	4228.5
2417.86	4200.5
2416.3	4134
2414.73	4108.5
2413.16	4156
2411.59	4124
2410.02	4148.5
2408.45	4137.5
2406.88	4027.5
2405.31	4047
2403.74	4054
2402.17	4071.5
2400.6	4044
2399.02	4014
2397.45	3971.5
2395.88	3955.5
2394.3	3954
2392.73	3883
2391.16	3993
2389.58	3953
2388.01	3967.5
2386.43	3982
2384.86	3961.5
2383.28	3927
2381.7	3976
2380.13	3902
2378.55	3895.5
2376.97	3940.5
2375.39	3941
2373.81	3884.5
2372.23	3862
2370.65	3897.5
2369.07	3908
2367.49	3902
2365.91	3863.5
2364.33	3883.5
2362.75	3823.5
2361.17	3844.5
2359.59	3810
2358.01	3830
2356.42	3776.5
2354.84	3793
2353.25	3838.5
2351.67	3765
2350.09	3792.5
2348.5	3756.5
2346.92	3692
2345.33	3759.5
2343.74	3725.5
2342.16	3685.5
2340.57	3693
2338.98	3656
2337.39	3647
2335.81	3683.5
2334.22	3658.5
2332.63	3606
2331.04	3615.5
2329.45	3639.5
2327.86	3630.5
2326.27	3636.5
2324.68	3577.5
2323.09	3592.5
2321.49	3611
2319.9	3601
2318.31	3642
2316.72	3601.5
2315.12	3539.5
2313.53	3522
2311.93	3525
2310.34	3481
2308.74	3493
2307.15	3476.5
2305.55	3511.5
2303.96	3467.5
2302.36	3406
2300.76	3443.5
2299.17	3464.5
2297.57	3442.5
2295.97	3396
2294.37	3392
2292.77	3340
2291.17	3381.5
2289.57	3396
2287.97	3340.5
2286.37	3393
2284.77	3335.5
2283.17	3336
2281.57	3273.5
2279.96	3265.5
2278.36	3229
2276.76	3275.5
2275.15	3191.5
2273.55	3219
2271.95	3222.5
2270.34	3208
2268.74	3185.5
2267.13	3216.5
2265.52	3160
2263.92	3197.5
2262.31	3175.5
2260.7	3139.5
2259.1	3110.5
2257.49	3091.5
2255.88	3155
2254.27	3102
2252.66	3067.5
2251.05	3119.5
2249.44	3047.5
2247.83	3068
2246.22	3067
2244.61	3101
2243	3040.5
2241.39	3084
2239.77	3004.5
2238.16	2979
2236.55	3017
2234.93	3003
2233.32	3019.5
2231.7	2983
2230.09	3010.5
2228.47	2929.5
2226.86	2904
2225.24	2976.5
2223.63	2926.5
2222.01	2902
2220.39	2901
2218.77	2839.5
2217.16	2905
2215.54	2868.5
2213.92	2836
2212.3	2837.5
2210.68	2809
2209.06	2789.5
2207.44	2748.5
2205.82	2759
2204.19	2800
2202.57	2768.5
2200.95	2795
2199.33	2731
2197.7	2755.5
2196.08	2680
2194.46	2637.5
2192.83	2650
2191.21	2663
2189.58	2675
2187.96	2658
2186.33	2676
2184.7	2687
2183.08	2708
2181.45	2621
2179.82	2665.5
2178.19	2655
2176.57	2637.5
2174.94	2594
2173.31	2574
2171.68	2601
2170.05	2557.5
2168.42	2577.5
2166.79	2585
2165.16	2566
2163.52	2567
2161.89	2533
2160.26	2559
2158.63	2535.5
2156.99	2551.5
2155.36	2536.5
2153.73	2537
2152.09	2522
2150.46	2475
2148.82	2494
2147.18	2483
2145.55	2467
2143.91	2471
2142.27	2409
2140.64	2490.5
2139	2428
2137.36	2451
2135.72	2436.5
2134.08	2383.5
2132.44	2410.5
2130.8	2363
2129.16	2323.5
2127.52	2307.5
2125.88	2306
2124.24	2343
2122.6	2325.5
2120.95	2294.5
2119.31	2275
2117.67	2302
2116.02	2303
2114.38	2226
2112.74	2228.5
2111.09	2221
2109.45	2208
2107.8	2221
2106.15	2191
2104.51	2198.5
2102.86	2133
2101.21	2113
2099.56	2169
2097.92	2145.5
2096.27	2122.5
2094.62	2089.5
2092.97	2157.5
2091.32	2097
2089.67	2129
2088.02	2141
2086.37	2083
2084.72	2163.5
2083.06	2072.5
2081.41	2081.5
2079.76	2089
2078.1	2031.5
2076.45	2064.5
2074.8	2044.5
2073.14	2036
2071.49	1986.5
2069.83	1996
2068.18	2013.5
2066.52	2016
2064.86	1966
2063.21	1976.5
2061.55	2000.5
2059.89	2048.5
2058.23	1981.5
2056.57	1971.5
2054.92	2021.5
2053.26	2019.5
2051.6	1977.5
2049.94	1976
2048.27	1997.5
2046.61	1978.5
2044.95	1959.5
2043.29	1951.5
2041.63	1925
2039.97	1939
2038.3	1945.5
2036.64	1890
2034.97	1939
2033.31	1900.5
2031.64	1915
2029.98	1879.5
2028.31	1864
2026.65	1899.5
2024.98	1833.5
2023.31	1840.5
2021.65	1821
2019.98	1859
2018.31	1868
2016.64	1820
2014.97	1791
2013.3	1816.5
2011.63	1811
2009.96	1815
2008.29	1768.5
2006.62	1722
2004.95	1758.5
2003.28	1770.5
2001.6	1753
1999.93	1725
1998.26	1720
1996.58	1733
1994.91	1734
1993.24	1689.5
1991.56	1757.5
1989.89	1722
1988.21	1703
1986.53	1679.5
1984.86	1702
1983.18	1700.5
1981.5	1693.5
1979.82	1683
1978.15	1703.5
1976.47	1689.5
1974.79	1677
1973.11	1694
1971.43	1631
1969.75	1641
1968.07	1641.5
1966.38	1609
1964.7	1593.5
1963.02	1616.5
1961.34	1623
1959.66	1623
1957.97	1630.5
1956.29	1600.5
1954.6	1578.5
1952.92	1597
1951.23	1581.5
1949.55	1513
1947.86	1550
1946.18	1586.5
1944.49	1528
1942.8	1577
1941.11	1539.5
1939.43	1502
1937.74	1561.5
1936.05	1555.5
1934.36	1543.5
1932.67	1502.5
1930.98	1505.5
1929.29	1528
1927.6	1447
1925.91	1481.5
1924.21	1465.5
1922.52	1411
1920.83	1423
1919.14	1415.5
1917.44	1378
1915.75	1433.5
1914.05	1443
1912.36	1408.5
1910.66	1386
1908.97	1413
1907.27	1414.5
1905.58	1366.5
1903.88	1346.5
1902.18	1345
1900.48	1345
1898.79	1369.5
1897.09	1385
1895.39	1342
1893.69	1376.5
1891.99	1363.5
1890.29	1317.5
1888.59	1313.5
1886.89	1313.5
1885.18	1294.5
1883.48	1305
1881.78	1286.5
1880.08	1287
1878.37	1268
1876.67	1259
1874.96	1301
1873.26	1270
1871.55	1272
1869.85	1294.5
1868.14	1227.5
1866.44	1212
1864.73	1240
1863.02	1220.5
1861.32	1222.5
1859.61	1201
1857.9	1195
1856.19	1204
1854.48	1172.5
1852.77	1185
1851.06	1156
1849.35	1178
1847.64	1157
1845.93	1146
1844.21	1167
1842.5	1165
1840.79	1168.5
1839.08	1118.5
1837.36	1149.5
1835.65	1162.5
1833.93	1120.5
1832.22	1117.5
1830.5	1136
1828.79	1142
1827.07	1138.5
1825.36	1117
1823.64	1088.5
1821.92	1103.5
1820.2	1081.5
1818.48	1072.5
1816.77	1091.5
1815.05	1064
1813.33	1079
1811.61	1090
1809.89	1068
1808.16	1057
1806.44	1030
1804.72	1070.5
1803	1041
1801.28	1031.5
1799.55	1023
1797.83	1023.5
1796.11	1044
1794.38	993
1792.66	1045
1790.93	1008.5
1789.21	1016
1787.48	1007.5
1785.75	992
1784.03	1007
1782.3	999
1780.57	944
1778.84	986
1777.11	957.5
1775.38	965.5
1773.66	968
1771.93	978
1770.19	917.5
1768.46	943
1766.73	970
1765	967.5
1763.27	972.5
1761.54	976.5
1759.8	1000
1758.07	975.5
1756.34	943
1754.6	967.5
1752.87	966.5
1751.13	965
1749.4	982
1747.66	960
1745.92	972
1744.19	994.5
1742.45	961.5
1740.71	952
1738.97	938.5
1737.23	894
1735.49	933.5
1733.75	915.5
1732.01	899.5
1730.27	898.5
1728.53	903
1726.79	909
1725.05	888
1723.31	904
1721.57	868
1719.82	869.5
1718.08	920.5
1716.34	807.5
1714.59	859.5
1712.85	834
1711.1	873.5
1709.36	873
1707.61	884
1705.86	884.5
1704.12	849
1702.37	861
1700.62	863
1698.87	838
1697.12	830.5
1695.37	835
1693.62	814.5
1691.87	785
1690.12	788
1688.37	802.5
1686.62	771
1684.87	784.5
1683.12	777.5
1681.36	816
1679.61	793
1677.86	798
1676.1	802
1674.35	819.5
1672.59	788
1670.84	771.5
1669.08	816
1667.33	819.5
1665.57	837
1663.81	800
1662.06	852.5
1660.3	816
1658.54	881.5
1656.78	854
1655.02	855.5
1653.26	843.5
1651.5	831
1649.74	796
1647.98	792
1646.22	779.5
1644.46	731.5
1642.7	741
1640.93	726
1639.17	713.5
1637.41	710
1635.64	743.5
1633.88	700
1632.11	701
1630.35	711.5
1628.58	728.5
1626.81	710.5
1625.05	693
1623.28	691
1621.51	699
1619.75	701.5
1617.98	665.5
1616.21	672
1614.44	648
1612.67	662.5
1610.9	672
1609.13	658.5
1607.36	661.5
1605.58	664
1603.81	635
1602.04	673.5
1600.27	649
1598.49	653
1596.72	671
1594.95	646.5
1593.17	656
1591.4	634.5
1589.62	676
1587.84	647
1586.07	637
1584.29	632.5
1582.51	669.5
1580.74	659.5
1578.96	602
1577.18	596.5
1575.4	653.5
1573.62	612.5
1571.84	580
1570.06	622
1568.28	622.5
1566.5	602
1564.72	600.5
1562.93	626.5
1561.15	617
1559.37	583
1557.58	627.5
1555.8	612
1554.02	622
1552.23	613.5
1550.45	586.5
1548.66	566
1546.87	586
1545.09	557.5
1543.3	590.5
1541.51	585
1539.72	558.5
1537.94	551.5
1536.15	532
1534.36	586
1532.57	590
1530.78	532
1528.99	567
1527.2	551.5
1525.4	549
1523.61	556
1521.82	548.5
1520.03	543
1518.23	550
1516.44	540.5
1514.65	543
1512.85	533
1511.06	537
1509.26	546
1507.46	522
1505.67	530
1503.87	542
1502.07	531
1500.28	538
1498.48	544
1496.68	535
1494.88	534
1493.08	526
1491.28	528.5
1489.48	534.5
1487.68	536
1485.88	507
1484.08	537.5
1482.27	510
1480.47	543
1478.67	552
1476.86	569
1475.06	590.5
1473.25	593.5
1471.45	607.5
1469.64	649
1467.84	653
1466.03	675
1464.23	644
1462.42	669.5
1460.61	724
1458.8	709.5
1456.99	716
1455.18	735
1453.37	768
1451.56	740
1449.75	772.5
1447.94	774
1446.13	820
1444.32	791
1442.51	808
1440.7	805.5
1438.88	805
1437.07	764
1435.26	727.5
1433.44	710.5
1431.63	653
1429.81	626.5
1427.99	574
1426.18	563
1424.36	562
1422.54	533
1420.73	494.5
1418.91	533
1417.09	490
1415.27	471.5
1413.45	471
1411.63	477.5
1409.81	469.5
1407.99	477
1406.17	470.5
1404.35	456.5
1402.53	465
1400.7	444.5
1398.88	430.5
1397.06	453
1395.23	442
1393.41	464
1391.58	443.5
1389.76	433
1387.93	409
1386.11	427
1384.28	438
1382.45	463
1380.62	433.5
1378.8	465.5
1376.97	433
1375.14	426
1373.31	423.5
1371.48	463.5
1369.65	443
1367.82	452
1365.99	433
1364.16	433
1362.32	451.5
1360.49	436.5
1358.66	430
1356.82	426
1354.99	416.5
1353.16	447
1351.32	408
1349.48	387
1347.65	428.5
1345.81	413.5
1343.98	414
1342.14	408
1340.3	437
1338.46	394
1336.62	422
1334.79	402.5
1332.95	418
1331.11	387
1329.27	432.5
1327.42	443
1325.58	457.5
1323.74	444.5
1321.9	472
1320.06	492
1318.21	447
1316.37	497
1314.53	505
1312.68	537
1310.84	548.5
1308.99	549.5
1307.15	573.5
1305.3	582.5
1303.45	576
1301.61	608.5
1299.76	582
1297.91	563
1296.06	562
1294.21	525
1292.36	531.5
1290.51	498
1288.66	479
1286.81	457
1284.96	460.5
1283.11	434
1281.26	471
1279.4	452.5
1277.55	425.5
1275.7	447.5
1273.84	425
1271.99	480.5
1270.13	436
1268.28	421
1266.42	454
1264.56	414
1262.71	456.5
1260.85	426
1258.99	435.5
1257.13	398
1255.27	409
1253.41	387.5
1251.56	399.5
1249.7	396.5
1247.83	383.5
1245.97	362
1244.11	386
1242.25	358
1240.39	368
1238.52	361.5
1236.66	353
1234.8	366.5
1232.93	339
1231.07	327
1229.2	353
1227.34	340.5
1225.47	346
1223.6	362
1221.74	312
1219.87	326.5
1218	327.5
1216.13	359
1214.26	288.5
1212.39	314
1210.53	298
1208.65	304
1206.78	286
1204.91	318.5
1203.04	315
1201.17	317
1199.3	295
1197.42	297
1195.55	307
1193.68	332.5
1191.8	310.5
1189.93	300.5
1188.05	301
1186.17	317.5
1184.3	282
1182.42	314.5
1180.54	310
1178.67	286
1176.79	310
1174.91	294.5
1173.03	327
1171.15	259
1169.27	307
1167.39	295
1165.51	318.5
1163.63	304
1161.75	289
1159.86	350
1157.98	283.5
1156.1	288
1154.21	311
1152.33	298
1150.44	303.5
1148.56	296
1146.67	268
1144.79	303
1142.9	304.5
1141.01	317
1139.12	291
1137.24	325.5
1135.35	304
1133.46	303
1131.57	347
1129.68	366.5
1127.79	374.5
1125.9	350.5
1124.01	371.5
1122.12	316.5
1120.22	299.5
1118.33	337.5
1116.44	335.5
1114.54	355
1112.65	311.5
1110.75	327
1108.86	329
1106.96	328
1105.07	358
1103.17	346.5
1101.27	347
1099.38	351
1097.48	350
1095.58	378
1093.68	389
1091.78	386
1089.88	394
1087.98	412
1086.08	419
1084.18	426
1082.28	416
1080.38	377
1078.47	443
1076.57	372
1074.67	419
1072.76	393
1070.86	420
1068.95	393
1067.05	451.5
1065.14	418.5
1063.24	393.5
1061.33	398
1059.42	378.5
1057.51	360
1055.6	347
1053.7	313
1051.79	350
1049.88	327.5
1047.97	326.5
1046.06	332.5
1044.14	306.5
1042.23	297
1040.32	326.5
1038.41	329
1036.5	336
1034.58	313.5
1032.67	329.5
1030.75	322.5
1028.84	321
1026.92	308
1025.01	315
1023.09	322.5
1021.17	324.5
1019.26	297
1017.34	319.5
1015.42	318
1013.5	314
1011.58	305
1009.66	353
1007.74	344
1005.82	315.5
1003.9	317
1001.98	309
1000.06	305
998.134	317
996.212	316.5
994.288	339
992.364	350.5
990.44	352
988.515	345.5
986.589	356
984.663	358
982.737	388.5
980.81	397
978.883	401
976.955	427.5
975.027	416
973.098	434.5
971.169	469.5
969.239	425.5
967.308	439
965.378	409
963.447	408
961.516	432
959.583	439.5
957.65	433
955.718	426
953.784	443.5
951.85	416
949.916	423.5
947.981	423
946.045	449
944.109	475
942.173	482.5
940.236	459
938.298	459
936.36	475
934.422	411
932.484	439
930.544	418
928.604	384.5
926.664	380
924.724	335.5
922.782	363
920.84	345.5
918.898	304
916.955	318.5
915.012	314
913.068	322
911.124	329
909.18	332.5
907.235	322.5
905.289	321
903.343	329.5
901.397	324
899.45	327
897.502	322
895.554	315
893.605	335
891.657	386.5
889.707	325
887.758	341.5
885.807	360.5
883.856	343.5
881.905	343.5
879.953	368
878.001	369
876.048	349
874.094	365
872.14	361
870.186	385
868.232	383
866.276	361.5
864.321	373.5
862.365	350
860.408	331.5
858.451	393
856.493	350
854.535	390
852.576	337
850.617	340
848.658	357.5
846.698	348
844.737	333.5
842.776	346
840.814	344
838.852	322.5
836.89	353
834.927	314
832.963	297
830.999	290
829.035	301.5
827.07	312.5
825.105	288
823.139	315
821.172	273
819.206	280.5
817.238	295
815.27	276.5
813.301	265.5
811.333	284
809.363	268
807.394	268
805.424	241
803.453	247
801.482	262
799.509	225
797.538	216
795.565	256
793.592	222
791.618	235.5
789.643	247
787.669	232
785.693	255
783.718	242
781.742	222
779.765	225
777.788	216
775.811	235.5
773.832	233
771.853	213
769.875	221
767.895	220.5
765.915	197.5
763.934	200
761.953	242
759.972	231.5
757.99	226
756.007	215
754.024	231
752.041	220
750.056	215.5
748.072	224
746.087	224.5
744.102	213
742.116	234
740.13	229
738.143	214
736.155	236.5
734.167	228
732.179	250.5
730.19	215
728.2	235.5
726.21	213.5
724.22	233
722.229	187
720.237	243.5
718.246	180
716.253	223
714.26	210
712.267	213
710.273	226
708.279	219.5
706.284	233
704.289	187
702.293	215
700.296	232.5
698.3	209
696.303	203
694.305	217
692.307	234
690.307	215
688.308	199.5
686.309	198
684.308	244
682.308	199
680.306	238
678.304	241.5
676.302	226.5
674.3	237
672.296	233
670.293	236
668.289	191
666.284	252
664.278	233
662.273	224
660.266	254.5
658.26	242
656.252	215.5
654.244	234
652.237	196.5
650.227	220
648.218	250.5
646.209	199
644.198	240
642.188	211
640.177	234
638.165	219
636.153	204
634.14	204
632.128	255
630.113	247
628.099	232
626.085	229.5
624.07	244
622.054	245.5
620.038	272
618.021	225
616.004	250
613.986	263.5
611.968	240
609.949	249
607.93	257.5
605.911	239
603.891	240.5
601.87	258
599.848	232.5
597.827	236
595.805	220.5
593.782	252
591.759	242.5
589.735	250
587.711	238
585.687	237
583.661	242
581.636	250
579.609	241
577.583	232
575.555	249.5
573.527	218
571.5	247
569.471	239
567.441	237
565.412	253.5
563.382	259.5
561.351	263
559.32	258.5
557.289	252
555.257	267.5
553.223	269.5
551.19	297
549.157	280
547.122	336.5
545.088	344
543.053	330
541.017	395.5
538.981	386.5
536.943	479.5
534.907	568.5
532.869	743
530.831	1022
528.792	1498.5
526.752	2441.5
524.713	3615.5
522.673	4690.5
520.632	4798
518.591	3981.5
516.549	2883
514.507	1928.5
512.464	1206
510.42	853.5
508.377	620
506.332	508
504.288	473
502.242	405
500.196	384
498.15	369.5
496.104	329
494.056	325
492.008	365
489.96	324.5
487.911	325.5
485.862	276.5
483.812	297
481.761	305.5
479.71	297
477.659	282
475.607	283.5
473.555	294
471.502	265
469.448	269
467.395	277.5
465.34	289
463.285	276
461.23	294
459.174	277
457.118	269
455.061	282
453.003	277
450.945	278
448.887	283
446.828	283.5
444.768	319.5
442.708	293.5
440.647	300
438.587	295
436.525	333
434.463	338
432.4	324
430.337	342
428.274	305
426.21	326
424.145	324
422.079	305
420.014	313
417.948	327.5
415.882	275
413.814	296
411.746	321.5
409.679	296.5
407.609	321
405.54	305.5
403.47	295
401.401	319.5
399.329	308
397.258	322.5
395.187	327
393.114	315
391.041	329.5
388.968	298.5
386.895	323
384.82	336
382.745	328.5
380.67	324
378.594	328
376.517	327.5
374.44	341
372.363	325.5
370.286	288
368.207	354
366.128	343
364.049	346.5
361.969	348
359.888	357
357.807	359
355.725	337.5
353.643	363.5
351.561	374
349.477	356
347.394	343
345.31	348
343.226	349.5
341.141	339
339.055	383.5
336.968	353
334.882	389
332.795	384
330.707	386
328.618	348
326.53	410
324.44	371
322.351	409
320.26	423
318.17	398.5
316.078	470
313.987	454
311.895	467
309.802	483
307.708	513.5
305.614	513
303.52	540
301.425	525
299.329	511
297.233	515
295.137	475
293.039	482.5
290.942	435.5
288.844	452.5
286.745	408
284.647	439.5
282.546	425
280.446	417.5
278.346	450.5
276.245	428
274.143	418.5
272.041	395
269.939	421
267.835	381
265.731	435
263.627	391
261.522	429.5
259.417	426
257.311	441.5
255.204	416
253.098	418
250.99	455
248.882	443.5
246.774	439.5
244.664	453
242.555	439
240.445	431
238.334	454
236.223	423
234.112	453
232	465.5
229.888	429
227.775	483
225.661	474
223.546	457
221.431	453
219.316	454
217.201	496.5
215.084	459
212.967	470
210.85	470
208.732	485.5
206.614	475.5
204.495	469.5
202.375	463
200.256	513
198.135	461
196.014	439
193.893	514.5
191.771	473
189.648	489
187.525	512
185.401	465
183.277	507
181.152	478
179.027	514
176.901	517
174.775	518
172.648	519.5
170.521	506.5
168.393	528
166.265	565.5
164.136	524
162.007	569.5
159.876	563
157.746	569.5
155.615	586
153.483	631
151.351	630
149.219	618
147.086	663
144.952	666.5
142.818	687.5
140.684	637
138.548	726
136.413	746.5
134.276	776
132.139	768
130.002	811
127.864	862
125.725	851
123.587	916
121.447	936
119.307	1000
117.166	1037
115.026	1054.5
112.885	1112.5
110.743	1130
108.6	1161.5
106.456	1205.5
104.313	1215
102.169	1219
100.023	1213
97.8789	1173.5
95.7328	1041
93.5869	924
91.4392	784
89.2919	673
87.1447	565
84.9959	451
