3528.51	201.5
3527.23	235
3525.95	236
3524.67	243
3523.39	238.25
3522.1	260.25
3520.82	236
3519.54	233
3518.26	251.5
3516.97	226.25
3515.69	261.5
3514.4	253.75
3513.12	235.75
3511.84	241.75
3510.55	258.75
3509.26	253.25
3507.98	261.75
3506.69	245.75
3505.41	280.5
3504.12	252.5
3502.83	260.75
3501.54	267.25
3500.26	252
3498.97	277
3497.68	295.5
3496.39	275
3495.1	271.75
3493.81	284.75
3492.52	299
3491.23	289.75
3489.94	302.25
3488.65	299.5
3487.36	291.75
3486.07	302.25
3484.78	307.5
3483.49	332.5
3482.19	320
3480.9	330
3479.61	341.5
3478.31	334
3477.02	329.75
3475.73	346.75
3474.43	348
3473.14	375
3471.84	339.75
3470.54	347.5
3469.25	358.5
3467.95	354
3466.66	349.25
3465.36	364
3464.06	358
3462.76	352.75
3461.46	368.5
3460.17	371.5
3458.87	383.5
3457.57	344
3456.27	378.75
3454.97	394.75
3453.67	376.75
3452.37	371.25
3451.07	370.25
3449.77	407
3448.47	393.5
3447.16	395.25
3445.86	408.5
3444.56	413.75
3443.26	420
3441.95	414.5
3440.65	439
3439.35	465.75
3438.04	422.25
3436.74	453
3435.43	456.5
3434.13	464
3432.82	475.75
3431.52	475
3430.21	500.25
3428.9	511.25
3427.6	512.25
3426.29	522.5
3424.98	497.25
3423.67	544
3422.36	550
3421.06	561
3419.75	567.25
3418.44	543.75
3417.13	552
3415.82	567.75
3414.51	584.5
3413.2	563
3411.88	557.5
3410.57	615.25
3409.26	609
3407.95	618.5
3406.64	600.5
3405.32	592
3404.01	621.25
3402.7	614
3401.38	636.25
3400.07	611.75
3398.75	602.25
3397.44	643.25
3396.12	631.5
3394.81	654.75
3393.49	643.5
3392.18	668
3390.86	662.5
3389.54	660
3388.23	644.5
3386.91	681.5
3385.59	677.75
3384.27	685.75
3382.95	721.75
3381.63	695
3380.31	732.25
3378.99	711.25
3377.67	725
3376.35	733.25
3375.03	753.75
3373.71	718.75
3372.39	720.25
3371.07	746.75
3369.75	728.75
3368.42	740.5
3367.1	749.75
3365.78	775.5
3364.45	780.25
3363.13	774.25
3361.81	794.5
3360.48	793.25
3359.16	793
3357.83	784.75
3356.51	855.25
3355.18	790.25
3353.85	799
3352.53	829.25
3351.2	826.25
3349.87	818.75
3348.54	820.25
3347.22	815.75
3345.89	831
3344.56	851.25
3343.23	833.25
3341.9	835
3340.57	838.25
3339.24	831.5
3337.91	828.25
3336.58	865
3335.25	852.25
3333.92	865.5
3332.58	842.75
3331.25	871
3329.92	855
3328.59	852.25
3327.25	895.25
3325.92	858.25
3324.58	894.75
3323.25	905.75
3321.92	898.5
3320.58	886
3319.25	907.5
3317.91	895
3316.57	897.25
3315.24	911
3313.9	883.25
3312.56	920.5
3311.23	922.5
3309.89	932.75
3308.55	910
3307.21	945.25
3305.87	940.25
3304.53	935.5
3303.19	960.5
3301.85	951.25
3300.51	977.75
3299.17	975.25
3297.83	968.5
3296.49	955
3295.15	967.5
3293.81	976.5
3292.46	935.75
3291.12	989.5
3289.78	999.75
3288.43	976
3287.09	992.5
3285.75	986
3284.4	971.25
3283.06	989.75
3281.71	1020.75
3280.37	994.5
3279.02	1054
3277.67	1003.25
3276.33	1037.25
3274.98	1026.25
3273.63	1042.75
3272.28	1039.25
3270.94	1062.25
3269.59	1035.75
3268.24	1064.5
3266.89	1101.5
3265.54	1099.25
3264.19	1131.25
3262.84	1108.25
3261.49	1138
3260.14	1164
3258.79	1181.75
3257.44	1181
3256.08	1226
3254.73	1214.25
3253.38	1256.25
3252.03	1266.75
3250.67	1317.25
3249.32	1361.75
3247.96	1342
3246.61	1444.75
3245.26	1458
3243.9	1505.5
3242.54	1528.25
3241.19	1547.75
3239.83	1582
3238.48	1672.25
3237.12	1677.5
3235.76	1724.5
3234.41	1742.75
3233.05	1817.5
3231.69	1873.25
3230.33	1850.75
3228.97	1933
3227.61	1961.5
3226.25	1978
3224.89	2015.5
3223.53	2082.75
3222.17	2074.75
3220.81	2115.5
3219.45	2148.5
3218.09	2164.75
3216.72	2183.5
3215.36	2190.25
3214	2235
3212.63	2265
3211.27	2271.75
3209.91	2268.5
3208.54	2283.75
3207.18	2329.75
3205.81	2331.5
3204.45	2361.25
3203.08	2327
3201.71	2346.25
3200.35	2390.5
3198.98	2387
3197.61	2367.25
3196.25	2410.75
3194.88	2433.5
3193.51	2393.25
3192.14	2438
3190.77	2453
3189.4	2463.25
3188.03	2514.5
3186.66	2460
3185.29	2507.25
3183.92	2499.25
3182.55	2521.25
3181.18	2517
3179.81	2555
3178.44	2519
3177.06	2588.5
3175.69	2617
3174.32	2611.25
3172.94	2630.25
3171.57	2640.25
3170.2	2681.5
3168.82	2668.5
3167.45	2676
3166.07	2729.75
3164.69	2744
3163.32	2775.5
3161.94	2783
3160.56	2790.5
3159.19	2892
3157.81	2885.75
3156.43	2881
3155.05	2888
3153.67	2886.25
3152.3	2953.75
3150.92	2955.25
3149.54	2980.25
3148.16	2967.25
3146.78	2995
3145.4	3035
3144.01	2995.25
3142.63	3046.25
3141.25	3084.25
3139.87	3084.75
3138.49	3123
3137.1	3160.25
3135.72	3169.25
3134.34	3199
3132.95	3177.5
3131.57	3215.75
3130.18	3254.5
3128.8	3289.5
3127.41	3306.75
3126.03	3357.5
3124.64	3334
3123.25	3290.5
3121.87	3442.75
3120.48	3387.25
3119.09	3406
3117.7	3435
3116.32	3465.25
3114.93	3467.25
3113.54	3469.75
3112.15	3482.75
3110.76	3505.75
3109.37	3499
3107.98	3533.5
3106.59	3571.25
3105.2	3559.5
3103.8	3571.25
3102.41	3604.75
3101.02	3629.5
3099.63	3642
3098.23	3649
3096.84	3630
3095.45	3662.75
3094.05	3703
3092.66	3640.25
3091.26	3680.75
3089.87	3728.75
3088.47	3745.5
3087.08	3760.25
3085.68	3759
3084.28	3797.75
3082.89	3782.5
3081.49	3759.5
3080.09	3801
3078.69	3856
3077.3	3835
3075.9	3775.75
3074.5	3861
3073.1	3816.75
3071.7	3843.75
3070.3	3860
3068.9	3908.75
3067.5	3863.75
3066.09	3870
3064.69	3884
3063.29	3894.5
3061.89	3897.25
3060.48	3879.75
3059.08	3940.75
3057.68	3967.75
3056.27	3921
3054.87	3960.75
3053.46	3962.75
3052.06	4020.25
3050.65	4029.5
3049.25	4016.75
3047.84	4000.5
3046.44	4082.25
3045.03	4069.25
3043.62	4039.5
3042.21	4047.5
3040.81	4103
3039.4	4108
3037.99	4107.25
3036.58	4123
3035.17	4154
3033.76	4112.75
3032.35	4179.25
3030.94	4192.25
3029.53	4182.75
3028.12	4187.25
3026.71	4226
3025.29	4197.25
3023.88	4175
3022.47	4227
3021.06	4216.25
3019.64	4230.25
3018.23	4262
3016.82	4243.75
3015.4	4275.25
3013.99	4261.75
3012.57	4236.5
3011.15	4312.75
3009.74	4297.75
3008.32	4321
3006.91	4297
3005.49	4370.5
3004.07	4364.5
3002.65	4401.75
3001.24	4353.75
2999.82	4389.25
2998.4	4414
2996.98	4431
2995.56	4440.25
2994.14	4462.5
2992.72	4476.75
2991.3	4496
2989.88	4533
2988.46	4565.25
2987.03	4578
2985.61	4618
2984.19	4607
2982.77	4634.5
2981.34	4700.75
2979.92	4700.5
2978.49	4707.75
2977.07	4729
2975.65	4794.25
2974.22	4752.75
2972.79	4773.5
2971.37	4914.75
2969.94	4839.25
2968.52	4858.25
2967.09	4865.75
2965.66	4904.75
2964.23	4930.5
2962.81	4953.5
2961.38	4929.75
2959.95	4979.75
2958.52	4999.5
2957.09	4999
2955.66	5009
2954.23	5044
2952.8	4983.75
2951.37	5074.5
2949.94	5091.75
2948.5	5137.5
2947.07	5104.25
2945.64	5134.25
2944.21	5162.75
2942.77	5188
2941.34	5189.5
2939.91	5207
2938.47	5272
2937.04	5307.75
2935.6	5282
2934.17	5336.5
2932.73	5357.75
2931.29	5367.75
2929.86	5373.5
2928.42	5362.75
2926.98	5464
2925.55	5468.25
2924.11	5420.25
2922.67	5469
2921.23	5488.25
2919.79	5501.5
2918.35	5556.25
2916.91	5535.75
2915.47	5561.75
2914.03	5580.5
2912.59	5546.75
2911.15	5599.25
2909.71	5576.25
2908.26	5618.75
2906.82	5654
2905.38	5617.25
2903.94	5671.5
2902.49	5673
2901.05	5691
2899.6	5682.25
2898.16	5669
2896.71	5694.5
2895.27	5718.25
2893.82	5720.25
2892.38	5756.5
2890.93	5764
2889.48	5782
2888.03	5726.25
2886.59	5747.25
2885.14	5716
2883.69	5765.75
2882.24	5737.25
2880.79	5836
2879.34	5728.5
2877.89	5806.25
2876.44	5778
2874.99	5753.75
2873.54	5820.5
2872.09	5821.75
2870.64	5792.5
2869.18	5831.75
2867.73	5862.75
2866.28	5823
2864.83	5866
2863.37	5790
2861.92	5808.75
2860.46	5892.5
2859.01	5879.25
2857.55	5891.25
2856.1	5844.75
2854.64	5759.75
2853.19	5890.5
2851.73	5848
2850.27	5800
2848.81	5862
2847.36	5781.25
2845.9	5843.5
2844.44	5824
2842.98	5765.25
2841.52	5705.25
2840.06	5643.25
2838.6	5687.25
2837.14	5629.25
2835.68	5562.5
2834.22	5631
2832.76	5547.75
2831.3	5547.25
2829.83	5521.75
2828.37	5523.5
2826.91	5456.25
2825.44	5437.25
2823.98	5431.75
2822.52	5425
2821.05	5352.75
2819.59	5333.25
2818.12	5370.25
2816.66	5333
2815.19	5372.75
2813.72	5387.5
2812.26	5319
2810.79	5379
2809.32	5278.25
2807.85	5306.75
2806.38	5311
2804.92	5284
2803.45	5274.25
2801.98	5300.75
2800.51	5260.5
2799.04	5242.25
2797.57	5280.25
2796.1	5223.75
2794.62	5185.5
2793.15	5240.75
2791.68	5220.75
2790.21	5215.25
2788.73	5162
2787.26	5200.5
2785.79	5247.25
2784.31	5240.25
2782.84	5236
2781.36	5218.75
2779.89	5210
2778.41	5266.75
2776.94	5262.75
2775.46	5273.25
2773.99	5275.5
2772.51	5277.25
2771.03	5288.5
2769.55	5213.25
2768.07	5318.5
2766.6	5338.5
2765.12	5328
2763.64	5295.25
2762.16	5353.75
2760.68	5300.5
2759.2	5296
2757.72	5291.75
2756.24	5232.5
2754.75	5259.25
2753.27	5288.5
2751.79	5274
2750.31	5275
2748.82	5254
2747.34	5249.25
2745.86	5275.75
2744.37	5239
2742.89	5240.25
2741.4	5238.25
2739.92	5228.5
2738.43	5254.75
2736.94	5234.25
2735.46	5246
2733.97	5232
2732.48	5286.25
2731	5241.75
2729.51	5239.25
2728.02	5291
2726.53	5243.25
2725.04	5207.5
2723.55	5218.5
2722.06	5197.25
2720.57	5241.75
2719.08	5183.5
2717.59	5239.75
2716.1	5211.5
2714.61	5171.75
2713.11	5181.25
2711.62	5216.5
2710.13	5210.5
2708.64	5203.5
2707.14	5191.5
2705.65	5158.5
2704.15	5172
2702.66	5134.25
2701.16	5136.25
2699.67	5178
2698.17	5114
2696.67	5161.25
2695.18	5172.75
2693.68	5111.5
2692.18	5102.25
2690.69	5104
2689.19	5083
2687.69	5089.75
2686.19	5082.5
2684.69	5080
2683.19	5069.75
2681.69	5045.25
2680.19	5091.5
2678.69	5078.5
2677.19	5035.75
2675.68	5000.75
2674.18	5065.5
2672.68	5024
2671.18	4990.5
2669.67	5013.75
2668.17	5018.25
2666.66	5068.5
2665.16	5088.25
2663.66	4971.5
2662.15	4972.75
2660.64	4960.5
2659.14	4987.5
2657.63	4963.25
2656.13	4952
2654.62	4929.5
2653.11	4880.5
2651.6	4921.5
2650.09	4922
2648.58	4923.75
2647.08	4897.5
2645.57	4874.75
2644.06	4858
2642.55	4907.25
2641.04	4829.5
2639.52	4837.25
2638.01	4817.25
2636.5	4816.25
2634.99	4797.25
2633.48	4795.5
2631.96	4779.5
2630.45	4771.75
2628.94	4682.75
2627.42	4748.75
2625.91	4716.5
2624.39	4731.5
2622.88	4715
2621.36	4709
2619.85	4731.75
2618.33	4710
2616.81	4760.5
2615.3	4668.25
2613.78	4683
2612.26	4642.25
2610.74	4704
2609.22	4658.25
2607.7	4664.25
2606.18	4608.75
2604.66	4619
2603.14	4652.75
2601.62	4600
2600.1	4597.25
2598.58	4560.25
2597.06	4556
2595.54	4545.75
2594.01	4522.25
2592.49	4536.25
2590.97	4514.75
2589.44	4533.75
2587.92	4495.5
2586.39	4524.25
2584.87	4476
2583.34	4532.5
2581.82	4433.5
2580.29	4498.5
2578.76	4452.25
2577.24	4461.5
2575.71	4443.75
2574.18	4469
2572.65	4431.5
2571.13	4464.25
2569.6	4440.5
2568.07	4422.25
2566.54	4418.25
2565.01	4439.5
2563.48	4452
2561.95	4435.5
2560.42	4369.5
2558.88	4384.25
2557.35	4406.5
2555.82	4317
2554.29	4312.25
2552.75	4344
2551.22	4315.75
2549.69	4321
2548.15	4334.75
2546.62	4298.5
2545.08	4289.75
2543.55	4269.5
2542.01	4282.75
2540.47	4210.75
2538.94	4209.5
2537.4	4239
2535.86	4236
2534.33	4183.75
2532.79	4162
2531.25	4185.5
2529.71	4148.75
2528.17	4170.5
2526.63	4137
2525.09	4114.75
2523.55	4131
2522.01	4121.5
2520.47	4074
2518.92	4031
2517.38	4105.25
2515.84	4079.25
2514.3	4060.75
2512.75	3988.25
2511.21	3990.25
2509.67	3989.75
2508.12	4012.75
2506.58	4000.5
2505.03	4010.5
2503.49	3975.75
2501.94	3949.75
2500.39	4005.75
2498.85	3930.5
2497.3	3928
2495.75	3879.5
2494.2	3855.75
2492.65	3862.5
2491.11	3871.5
2489.56	3857.25
2488.01	3818.5
2486.46	3804.75
2484.91	3783.5
2483.36	3815.75
2481.8	3819.75
2480.25	3745.75
2478.7	3801.5
2477.15	3809.5
2475.6	3737
2474.04	3748
2472.49	3687.75
2470.93	3697.25
2469.38	3703
2467.83	3669.25
2466.27	3663.25
2464.71	3681.75
2463.16	3612.75
2461.6	3643.25
2460.05	3606.75
2458.49	3611
2456.93	3575
2455.37	3580.5
2453.81	3528
2452.26	3543.75
2450.7	3482.25
2449.14	3490.75
2447.58	3518.5
2446.02	3456.75
2444.46	3425.75
2442.9	3421.25
2441.33	3518.75
2439.77	3404.5
2438.21	3457.25
2436.65	3399.75
2435.08	3440.5
2433.52	3423
2431.96	3404.5
2430.39	3374.25
2428.83	3360
2427.26	3404.5
2425.7	3362
2424.13	3372.75
2422.56	3346.75
2421	3312.25
2419.43	3330.5
2417.86	3314.75
2416.3	3319.25
2414.73	3305.75
2413.16	3247.75
2411.59	3255
2410.02	3265
2408.45	3250.5
2406.88	3254.5
2405.31	3271.25
2403.74	3270
2402.17	3253.5
2400.6	3279.25
2399.02	3223.75
2397.45	3261.75
2395.88	3200.25
2394.3	3163
2392.73	3152
2391.16	3184.75
2389.58	3172.25
2388.01	3197.25
2386.43	3225.25
2384.86	3152.25
2383.28	3169
2381.7	3140.5
2380.13	3177.75
2378.55	3154
2376.97	3132.75
2375.39	3140.75
2373.81	3112.5
2372.23	3102
2370.65	3093.25
2369.07	3139.25
2367.49	3095
2365.91	3133.25
2364.33	3076.75
2362.75	3055.75
2361.17	3058.25
2359.59	3036.75
2358.01	3049.75
2356.42	3032.5
2354.84	3040.25
2353.25	3021.75
2351.67	3045.5
2350.09	3012
2348.5	3002.75
2346.92	3044.75
2345.33	3041
2343.74	3040
2342.16	2988
2340.57	3012.5
2338.98	3027.5
2337.39	2981.75
2335.81	2953.25
2334.22	2935.75
2332.63	2961
2331.04	2978.5
2329.45	2947.5
2327.86	2941.25
2326.27	2951
2324.68	2891
2323.09	2907
2321.49	2932.75
2319.9	2865.5
2318.31	2902.5
2316.72	2879
2315.12	2860.75
2313.53	2822.5
2311.93	2879.25
2310.34	2839
2308.74	2819.75
2307.15	2801
2305.55	2829
2303.96	2818.5
2302.36	2761
2300.76	2765
2299.17	2782.75
2297.57	2763.75
2295.97	2711
2294.37	2698.25
2292.77	2705.25
2291.17	2686.5
2289.57	2696.5
2287.97	2725.75
2286.37	2691.75
2284.77	2686.5
2283.17	2699.5
2281.57	2685.75
2279.96	2672.25
2278.36	2704.5
2276.76	2632.25
2275.15	2649.25
2273.55	2655.75
2271.95	2611.75
2270.34	2595
2268.74	2598.75
2267.13	2575.5
2265.52	2587.5
2263.92	2543.25
2262.31	2506.25
2260.7	2542
2259.1	2535
2257.49	2521
2255.88	2538.5
2254.27	2543.75
2252.66	2485
2251.05	2529.75
2249.44	2515
2247.83	2462.25
2246.22	2520
2244.61	2518.75
2243	2517.5
2241.39	2483
2239.77	2484.5
2238.16	2490.25
2236.55	2490.5
2234.93	2437.25
2233.32	2425.5
2231.7	2428.25
2230.09	2443
2228.47	2359
2226.86	2376.75
2225.24	2393.5
2223.63	2380.25
2222.01	2342.75
2220.39	2355.5
2218.77	2355
2217.16	2335
2215.54	2313.25
2213.92	2352.75
2212.3	2304.75
2210.68	2273.75
2209.06	2272.75
2207.44	2267.75
2205.82	2300
2204.19	2276.75
2202.57	2246.75
2200.95	2265.5
2199.33	2300.25
2197.7	2240.25
2196.08	2255.25
2194.46	2251.75
2192.83	2233.5
2191.21	2218
2189.58	2213
2187.96	2210.25
2186.33	2223.5
2184.7	2214
2183.08	2196
2181.45	2223.75
2179.82	2176.75
2178.19	2171
2176.57	2176.75
2174.94	2216.5
2173.31	2128.5
2171.68	2135.5
2170.05	2129.25
2168.42	2112.75
2166.79	2122.5
2165.16	2096
2163.52	2105.75
2161.89	2064
2160.26	2090.25
2158.63	2055.5
2156.99	2076.25
2155.36	2039.75
2153.73	2039.25
2152.09	2081.75
2150.46	2040.5
2148.82	2020.5
2147.18	1986.25
2145.55	2021.25
2143.91	2001.75
2142.27	1975
2140.64	1960
2139	2014.25
2137.36	1956
2135.72	1968.75
2134.08	1947.75
2132.44	1889
2130.8	1937.5
2129.16	1951
2127.52	1930.5
2125.88	1901
2124.24	1865.75
2122.6	1848
2120.95	1902.75
2119.31	1885.5
2117.67	1850.25
2116.02	1866
2114.38	1876.75
2112.74	1851.75
2111.09	1824.5
2109.45	1843
2107.8	1798.75
2106.15	1812.75
2104.51	1776.75
2102.86	1778
2101.21	1835.5
2099.56	1750.75
2097.92	1746
2096.27	1764.5
2094.62	1805.5
2092.97	1781
2091.32	1763
2089.67	1749
2088.02	1767
2086.37	1744.5
2084.72	1752.75
2083.06	1749.75
2081.41	1763.25
2079.76	1728.75
2078.1	1721.25
2076.45	1712
2074.8	1696
2073.14	1733.5
2071.49	1711.5
2069.83	1730.75
2068.18	1673.5
2066.52	1673.75
2064.86	1682.75
2063.21	1706.5
2061.55	1684
2059.89	1686.5
2058.23	1645.5
2056.57	1654
2054.92	1648.5
2053.26	1656.75
2051.6	1642.5
2049.94	1650
2048.27	1618.75
2046.61	1630
2044.95	1597.5
2043.29	1623.5
2041.63	1618
2039.97	1598.75
2038.3	1579.75
2036.64	1552.75
2034.97	1545.5
2033.31	1569.25
2031.64	1579
2029.98	1542.25
2028.31	1540.5
2026.65	1537.5
2024.98	1510.75
2023.31	1470.25
2021.65	1520.5
2019.98	1528
2018.31	1491
2016.64	1482.75
2014.97	1507
2013.3	1477.5
2011.63	1484.25
2009.96	1450.25
2008.29	1494.75
2006.62	1448.75
2004.95	1468
2003.28	1397
2001.6	1454
1999.93	1428.75
1998.26	1430.75
1996.58	1441.5
1994.91	1425.75
1993.24	1426
1991.56	1399.25
1989.89	1417
1988.21	1429.5
1986.53	1388.75
1984.86	1430.75
1983.18	1394.75
1981.5	1400.75
1979.82	1371.75
1978.15	1376
1976.47	1360.5
1974.79	1339.75
1973.11	1349.25
1971.43	1346.75
1969.75	1359
1968.07	1321
1966.38	1363.75
1964.7	1348.5
1963.02	1322.5
1961.34	1310.75
1959.66	1300.75
1957.97	1306.5
1956.29	1308.5
1954.6	1288.25
1952.92	1303.25
1951.23	1269.75
1949.55	1261.75
1947.86	1260.5
1946.18	1256.75
1944.49	1279.5
1942.8	1232.25
1941.11	1248.75
1939.43	1210.25
1937.74	1250.5
1936.05	1239.25
1934.36	1226.25
1932.67	1216.5
1930.98	1224
1929.29	1211.5
1927.6	1217.75
1925.91	1207.75
1924.21	1177.75
1922.52	1188.75
1920.83	1179.25
1919.14	1202.25
1917.44	1179
1915.75	1152.75
1914.05	1186.25
1912.36	1184.25
1910.66	1176.25
1908.97	1146.5
1907.27	1155.5
1905.58	1135
1903.88	1144.25
1902.18	1128.75
1900.48	1136.25
1898.79	1146
1897.09	1139
1895.39	1113.5
1893.69	1121
1891.99	1104.5
1890.29	1097.75
1888.59	1077.25
1886.89	1102
1885.18	1105.5
1883.48	1077.5
1881.78	1037.75
1880.08	1057.25
1878.37	1030.5
1876.67	1029
1874.96	1015.75
1873.26	1062
1871.55	1015.75
1869.85	1007.75
1868.14	1003.5
1866.44	1026.75
1864.73	1042.75
1863.02	1010.5
1861.32	1008
1859.61	997.25
1857.9	985.25
1856.19	991
1854.48	1033.25
1852.77	1008.25
1851.06	970.75
1849.35	1010.75
1847.64	969.75
1845.93	977.75
1844.21	992.25
1842.5	967.75
1840.79	966
1839.08	946.75
1837.36	940
1835.65	971.75
1833.93	956
1832.22	973.5
1830.5	947.5
1828.79	950.25
1827.07	932.5
1825.36	926.5
1823.64	920.25
1821.92	924.5
1820.2	902.75
1818.48	927.75
1816.77	893
1815.05	895.5
1813.33	908.5
1811.61	882.5
1809.89	900.5
1808.16	874
1806.44	893.5
1804.72	887.5
1803	882.5
1801.28	880
1799.55	870.25
1797.83	884.5
1796.11	883.5
1794.38	879.5
1792.66	839.25
1790.93	844.75
1789.21	855
1787.48	830.5
1785.75	821.75
1784.03	835.5
1782.3	825.75
1780.57	818
1778.84	819
1777.11	840.75
1775.38	852.25
1773.66	804.75
1771.93	839.5
1770.19	821.25
1768.46	841.5
1766.73	825.5
1765	859
1763.27	843
1761.54	824.5
1759.8	836.5
1758.07	887
1756.34	901.5
1754.6	898.25
1752.87	894
1751.13	932.5
1749.4	948.75
1747.66	939.25
1745.92	911
1744.19	936.75
1742.45	906.25
1740.71	860.5
1738.97	882.5
1737.23	849.75
1735.49	847
1733.75	825.5
1732.01	825.75
1730.27	813.5
1728.53	786.25
1726.79	776.25
1725.05	785
1723.31	731.75
1721.57	744.5
1719.82	768.5
1718.08	758.5
1716.34	756.25
1714.59	744.5
1712.85	727.25
1711.1	736.5
1709.36	748.25
1707.61	707.5
1705.86	752.5
1704.12	703.25
1702.37	716.75
1700.62	690.75
1698.87	701.25
1697.12	701.5
1695.37	665.75
1693.62	694.75
1691.87	705.5
1690.12	691.75
1688.37	693
1686.62	705
1684.87	704.75
1683.12	693.75
1681.36	697.5
1679.61	710.5
1677.86	732.25
1676.1	706.5
1674.35	735
1672.59	763.75
1670.84	768.5
1669.08	858.75
1667.33	845.25
1665.57	903.25
1663.81	961.75
1662.06	1039.5
1660.3	1092.5
1658.54	1140.75
1656.78	1133
1655.02	1088.25
1653.26	1079.5
1651.5	1006.75
1649.74	944.5
1647.98	862.5
1646.22	813.75
1644.46	780
1642.7	751.5
1640.93	731
1639.17	706
1637.41	689
1635.64	670.5
1633.88	656
1632.11	636.5
1630.35	648
1628.58	656.25
1626.81	658.5
1625.05	606.25
1623.28	649.25
1621.51	590.75
1619.75	625.5
1617.98	595
1616.21	599.5
1614.44	618.5
1612.67	598.5
1610.9	611.25
1609.13	577.75
1607.36	575
1605.58	576.75
1603.81	618
1602.04	587
1600.27	614
1598.49	580
1596.72	582
1594.95	573.5
1593.17	568.25
1591.4	561.75
1589.62	580
1587.84	557.5
1586.07	555.5
1584.29	580.5
1582.51	568.5
1580.74	562
1578.96	577.5
1577.18	568
1575.4	543
1573.62	569.75
1571.84	569.5
1570.06	564
1568.28	571.75
1566.5	550.75
1564.72	564.75
1562.93	550.5
1561.15	546
1559.37	563.5
1557.58	528.25
1555.8	561.75
1554.02	555
1552.23	546
1550.45	544.75
1548.66	520.5
1546.87	538.25
1545.09	515.25
1543.3	552.25
1541.51	527.5
1539.72	524.25
1537.94	522.5
1536.15	538.75
1534.36	535
1532.57	515.5
1530.78	533
1528.99	527.75
1527.2	549.5
1525.4	511.25
1523.61	522.5
1521.82	517
1520.03	510.25
1518.23	514.5
1516.44	532.75
1514.65	513.25
1512.85	520
1511.06	549.25
1509.26	527.25
1507.46	540.25
1505.67	531
1503.87	540
1502.07	557.75
1500.28	520.75
1498.48	534.5
1496.68	560.25
1494.88	564.75
1493.08	565.5
1491.28	559.25
1489.48	618
1487.68	582.25
1485.88	606
1484.08	622.75
1482.27	639
1480.47	664.75
1478.67	695.75
1476.86	740.75
1475.06	790
1473.25	855.75
1471.45	917.5
1469.64	966
1467.84	1038.25
1466.03	1115.75
1464.23	1134
1462.42	1255.5
1460.61	1309.75
1458.8	1366
1456.99	1417.5
1455.18	1447
1453.37	1454.75
1451.56	1536
1449.75	1591.75
1447.94	1608.75
1446.13	1722
1444.32	1729
1442.51	1811.75
1440.7	1796
1438.88	1756.25
1437.07	1666.25
1435.26	1530.75
1433.44	1357
1431.63	1203.25
1429.81	1070.75
1427.99	971
1426.18	873.75
1424.36	824.5
1422.54	805.5
1420.73	764.25
1418.91	730
1417.09	670.25
1415.27	681.5
1413.45	643.5
1411.63	601.25
1409.81	593.25
1407.99	586.5
1406.17	550.75
1404.35	559.5
1402.53	528
1400.7	518
1398.88	517
1397.06	488.25
1395.23	516
1393.41	510.5
1391.58	493.25
1389.76	462.25
1387.93	485.5
1386.11	501
1384.28	496.25
1382.45	514
1380.62	469
1378.8	534.25
1376.97	527.5
1375.14	543.75
1373.31	550.5
1371.48	570.25
1369.65	542.25
1367.82	563.25
1365.99	530.75
1364.16	531.5
1362.32	514.5
1360.49	535
1358.66	530
1356.82	495.5
1354.99	507.25
1353.16	519
1351.32	529
1349.48	532
1347.65	511.5
1345.81	553.5
1343.98	538
1342.14	527
1340.3	543.5
1338.46	552.75
1336.62	550
1334.79	570.75
1332.95	594.5
1331.11	620.75
1329.27	648
1327.42	681.75
1325.58	715.75
1323.74	730.25
1321.9	759.75
1320.06	820
1318.21	868.5
1316.37	896.25
1314.53	961.5
1312.68	1051.75
1310.84	1117
1308.99	1187.25
1307.15	1287.5
1305.3	1296.5
1303.45	1387.75
1301.61	1373.25
1299.76	1346
1297.91	1238
1296.06	1190
1294.21	1072
1292.36	1009.25
1290.51	969.5
1288.66	906.25
1286.81	846
1284.96	859
1283.11	849.5
1281.26	861.5
1279.4	812.25
1277.55	822
1275.7	861.75
1273.84	867
1271.99	854.25
1270.13	873.75
1268.28	902
1266.42	875
1264.56	849.5
1262.71	838.25
1260.85	826.25
1258.99	804.25
1257.13	787.75
1255.27	733.5
1253.41	725.5
1251.56	671.5
1249.7	654.5
1247.83	642.25
1245.97	592.5
1244.11	595
1242.25	590.5
1240.39	560.5
1238.52	544.5
1236.66	519.25
1234.8	517.25
1232.93	533.75
1231.07	488
1229.2	518.75
1227.34	489.25
1225.47	467
1223.6	477.75
1221.74	486.5
1219.87	455.75
1218	445
1216.13	432.5
1214.26	443
1212.39	436.5
1210.53	440.25
1208.65	434.25
1206.78	442.25
1204.91	446.75
1203.04	422.75
1201.17	435.25
1199.3	444
1197.42	444.25
1195.55	426.25
1193.68	420
1191.8	445.75
1189.93	428
1188.05	425.25
1186.17	389
1184.3	425.5
1182.42	431
1180.54	442.5
1178.67	435.5
1176.79	434.25
1174.91	406.75
1173.03	426.5
1171.15	415.75
1169.27	453
1167.39	417.25
1165.51	467.75
1163.63	444.75
1161.75	432.25
1159.86	454.5
1157.98	413.5
1156.1	472.5
1154.21	416
1152.33	437.25
1150.44	438.5
1148.56	459
1146.67	476.5
1144.79	464.5
1142.9	465
1141.01	449.75
1139.12	471.5
1137.24	485
1135.35	517.5
1133.46	587.25
1131.57	610
1129.68	642.25
1127.79	648.75
1125.9	684.25
1124.01	657.75
1122.12	679.25
1120.22	644.25
1118.33	629.25
1116.44	635
1114.54	606.5
1112.65	629.25
1110.75	592.5
1108.86	617.75
1106.96	654.5
1105.07	669.5
1103.17	688
1101.27	720.75
1099.38	771.25
1097.48	794
1095.58	816.75
1093.68	866.75
1091.78	913.5
1089.88	952.25
1087.98	969
1086.08	972.75
1084.18	1005
1082.28	1007.25
1080.38	1003
1078.47	972.25
1076.57	957
1074.67	968.75
1072.76	929
1070.86	948.5
1068.95	973
1067.05	944.5
1065.14	1015
1063.24	991.25
1061.33	951.25
1059.42	844
1057.51	762.75
1055.6	763.5
1053.7	734
1051.79	689
1049.88	690
1047.97	666.5
1046.06	662.25
1044.14	665.75
1042.23	659.75
1040.32	693.5
1038.41	648
1036.5	638
1034.58	654
1032.67	685
1030.75	620.25
1028.84	631.5
1026.92	608.75
1025.01	617.25
1023.09	604.5
1021.17	641.5
1019.26	625.25
1017.34	633.5
1015.42	602.25
1013.5	598.5
1011.58	622
1009.66	576.25
1007.74	563.5
1005.82	544
1003.9	597.75
1001.98	551.5
1000.06	575
998.134	578
996.212	547.25
994.288	551.75
992.364	560.25
990.44	578.5
988.515	614.5
986.589	612
984.663	615
982.737	648.25
980.81	659.5
978.883	694.75
976.955	697.5
975.027	709
973.098	723.5
971.169	719.25
969.239	723.5
967.308	732.5
965.378	686.5
963.447	701.5
961.516	692.5
959.583	732.75
957.65	698.75
955.718	731.25
953.784	693.5
951.85	699.5
949.916	713
947.981	758.75
946.045	727
944.109	768.25
942.173	744.5
940.236	771
938.298	791
936.36	742
934.422	721
932.484	719
930.544	717.5
928.604	715.75
926.664	727.25
924.724	700.5
922.782	704.75
920.84	719.25
918.898	728.5
916.955	733.5
915.012	747.25
913.068	688.25
911.124	720.25
909.18	723.25
907.235	717.25
905.289	718
903.343	740
901.397	748.25
899.45	731.5
897.502	760
895.554	828.75
893.605	844.5
891.657	835
889.707	867
887.758	866.25
885.807	837.25
883.856	819.5
881.905	854.75
879.953	869.25
878.001	873.25
876.048	908
874.094	909
872.14	895.5
870.186	868.5
868.232	888.75
866.276	863.5
864.321	862
862.365	846.5
860.408	802.25
858.451	821.5
856.493	807
854.535	804.75
852.576	820
850.617	829.75
848.658	817.5
846.698	807
844.737	809
842.776	797.5
840.814	811.75
838.852	789
836.89	759.25
834.927	743
832.963	690.5
830.999	690.25
829.035	668
827.07	624.5
825.105	625.25
823.139	617.5
821.172	628.5
819.206	568.25
817.238	567.75
815.27	558
813.301	530
811.333	547.25
809.363	548.25
807.394	495.75
805.424	500.5
803.453	473.5
801.482	434.5
799.509	443.5
797.538	453.5
795.565	446.5
793.592	409.5
791.618	440.5
789.643	399.75
787.669	409.25
785.693	409.25
783.718	404
781.742	397.5
779.765	409.5
777.788	413.5
775.811	423
773.832	393.25
771.853	408
769.875	403.5
767.895	390
765.915	395.75
763.934	413
761.953	399.5
759.972	398
757.99	420
756.007	401.25
754.024	409.25
752.041	376
750.056	354.75
748.072	396.25
746.087	387
744.102	384.5
742.116	414.5
740.13	389.25
738.143	417.5
736.155	394
734.167	407.5
732.179	425.25
730.19	441
728.2	405.25
726.21	386
724.22	427.75
722.229	404
720.237	429.75
718.246	408
716.253	408
714.26	380.25
712.267	400
710.273	394.75
708.279	358.75
706.284	367.25
704.289	352
702.293	341
700.296	347
698.3	324.75
696.303	330.75
694.305	351.25
692.307	329.75
690.307	322.5
688.308	335.25
686.309	359.25
684.308	326.5
682.308	319.5
680.306	314.25
678.304	327.25
676.302	319.25
674.3	334.75
672.296	341.5
670.293	356.75
668.289	319
666.284	339.25
664.278	360.25
662.273	331
660.266	333.75
658.26	335.75
656.252	346.25
654.244	350.5
652.237	360.5
650.227	341.5
648.218	368.5
646.209	367
644.198	363.5
642.188	397.75
640.177	375.5
638.165	365.5
636.153	363.5
634.14	377
632.128	389
630.113	401.5
628.099	358.25
626.085	374.5
624.07	396.75
622.054	390
620.038	406.25
618.021	416.5
616.004	406.25
613.986	419
611.968	404.25
609.949	439.5
607.93	439.5
605.911	422.5
603.891	456.5
601.87	438.5
599.848	435.25
597.827	373.5
595.805	437.5
593.782	438.5
591.759	418.25
589.735	395.25
587.711	415.25
585.687	373.75
583.661	407.5
581.636	410.25
579.609	417
577.583	373.5
575.555	372.25
573.527	378.25
571.5	394.25
569.471	398.25
567.441	402.75
565.412	415
563.382	370.75
561.351	403
559.32	393
557.289	431
555.257	403.5
553.223	406
551.19	436.5
549.157	438
547.122	446
545.088	477.25
543.053	495
541.017	524.75
538.981	536.25
536.943	584
534.907	721.25
532.869	874.5
530.831	1161.5
528.792	1633.75
526.752	2349.5
524.713	3481.75
522.673	4291.75
520.632	4298
518.591	3648
516.549	2676.75
514.507	1861
512.464	1254.5
510.42	956.25
508.377	767
506.332	707.75
504.288	595.75
502.242	586.25
500.196	577
498.15	537.25
496.104	547.25
494.056	520.75
492.008	527.25
489.96	512
487.911	522.5
485.862	509.25
483.812	500.25
481.761	503.75
479.71	512.25
477.659	509
475.607	507.75
473.555	493.5
471.502	507.25
469.448	471.5
467.395	500.5
465.34	489
463.285	511.75
461.23	483
459.174	520
457.118	530
455.061	499.75
453.003	478.75
450.945	543.5
448.887	544.5
446.828	547.5
444.768	506
442.708	518.5
440.647	538
438.587	535.25
436.525	531.5
434.463	550.75
432.4	547.25
430.337	549.5
428.274	560.5
426.21	565.5
424.145	547.5
422.079	553
420.014	558.5
417.948	587
415.882	563.5
413.814	587.5
411.746	611.75
409.679	591
407.609	598.75
405.54	608.75
403.47	568
401.401	614.25
399.329	606.5
397.258	587.25
395.187	582.5
393.114	605
391.041	608.25
388.968	573.25
386.895	608
384.82	630.25
382.745	583
380.67	627.25
378.594	595.5
376.517	618.25
374.44	627
372.363	611.25
370.286	605.75
368.207	602.75
366.128	632.75
364.049	650
361.969	638
359.888	597.25
357.807	682.5
355.725	611
353.643	685.75
351.561	623
349.477	643
347.394	658.5
345.31	653.25
343.226	679.75
341.141	630.5
339.055	683.75
336.968	704.5
334.882	658
332.795	717.5
330.707	718.75
328.618	690.25
326.53	709.75
324.44	718.5
322.351	740
320.26	753.75
318.17	788
316.078	786
313.987	789.5
311.895	847.5
309.802	856
307.708	901.5
305.614	901.75
303.52	854.75
301.425	899.5
299.329	896
297.233	890
295.137	889
293.039	899.25
290.942	900.75
288.844	857
286.745	913
284.647	895.75
282.546	906.75
280.446	909.75
278.346	950.5
276.245	948
274.143	945.75
272.041	949
269.939	944.25
267.835	980
265.731	972.25
263.627	983.25
261.522	1018.75
259.417	1020.25
257.311	1028.25
255.204	1009.5
253.098	1054
250.99	1067
248.882	1057
246.774	1096.25
244.664	1112.25
242.555	1117.25
240.445	1140.75
238.334	1158
236.223	1199.5
234.112	1185.25
232	1194
229.888	1231.75
227.775	1239.75
225.661	1243.25
223.546	1258.5
221.431	1271.25
219.316	1273
217.201	1278
215.084	1305
212.967	1265.5
210.85	1301
208.732	1291.25
206.614	1306
204.495	1299
202.375	1318
200.256	1295.5
198.135	1317
196.014	1329
193.893	1319
191.771	1258.25
189.648	1317.25
187.525	1326.25
185.401	1274
183.277	1309.5
181.152	1362.25
179.027	1323.5
176.901	1351
174.775	1328.5
172.648	1367.75
170.521	1367.25
168.393	1411
166.265	1413.25
164.136	1391
162.007	1436
159.876	1456
157.746	1465.25
155.615	1522.5
153.483	1600.25
151.351	1621.75
149.219	1629.75
147.086	1659.5
144.952	1697.75
142.818	1771.5
140.684	1768.25
138.548	1835
136.413	1890.25
134.276	1945.5
132.139	1989.75
130.002	2038.75
127.864	2151
125.725	2237
123.587	2274
121.447	2426
119.307	2451.5
117.166	2520.25
115.026	2640.25
112.885	2699.25
110.743	2838
108.6	2929.5
106.456	3001.25
104.313	3002.5
102.169	2959.75
100.023	2930
97.8789	2694.5
95.7328	2478.75
93.5869	2186.25
91.4392	1864.25
89.2919	1542.25
87.1447	1216.25
84.9959	929.75
