3528.51	126.5
3527.23	139.5
3525.95	133
3524.67	137
3523.39	137.5
3522.1	149
3520.82	148
3519.54	148.5
3518.26	152
3516.97	152
3515.69	155
3514.4	155.5
3513.12	143
3511.84	149.5
3510.55	152.5
3509.26	157.5
3507.98	160
3506.69	152
3505.41	157.5
3504.12	162
3502.83	161
3501.54	166.5
3500.26	167
3498.97	166
3497.68	166
3496.39	173
3495.1	175
3493.81	179.5
3492.52	177
3491.23	187
3489.94	183.5
3488.65	192
3487.36	194
3486.07	186.5
3484.78	202.5
3483.49	194.5
3482.19	205
3480.9	200
3479.61	196
3478.31	204
3477.02	201.5
3475.73	202.5
3474.43	220.5
3473.14	212.5
3471.84	218.5
3470.54	219
3469.25	228.5
3467.95	219
3466.66	224
3465.36	223.5
3464.06	223.5
3462.76	220.5
3461.46	218
3460.17	234.5
3458.87	236
3457.57	234
3456.27	237
3454.97	238.5
3453.67	236.5
3452.37	242
3451.07	233.5
3449.77	241.5
3448.47	246.5
3447.16	260
3445.86	244.5
3444.56	261.5
3443.26	263
3441.95	263
3440.65	277
3439.35	274
3438.04	290
3436.74	276.5
3435.43	283
3434.13	286
3432.82	299.5
3431.52	302
3430.21	306
3428.9	316.5
3427.6	316
3426.29	324.5
3424.98	325
3423.67	330.5
3422.36	335
3421.06	333.5
3419.75	342.5
3418.44	341.5
3417.13	354
3415.82	347.5
3414.51	347
3413.2	346.5
3411.88	371
3410.57	368
3409.26	368
3407.95	367.5
3406.64	367.5
3405.32	375.5
3404.01	381.5
3402.7	381
3401.38	387
3400.07	380.5
3398.75	377
3397.44	387
3396.12	403.5
3394.81	398.5
3393.49	414.5
3392.18	412.5
3390.86	406
3389.54	414
3388.23	408
3386.91	411
3385.59	426.5
3384.27	432
3382.95	425
3381.63	438
3380.31	447
3378.99	446.5
3377.67	445
3376.35	455.5
3375.03	455
3373.71	465.5
3372.39	458
3371.07	470.5
3369.75	462.5
3368.42	474
3367.1	469
3365.78	493
3364.45	480.5
3363.13	487.5
3361.81	490
3360.48	496
3359.16	492
3357.83	512.5
3356.51	499
3355.18	514.5
3353.85	512
3352.53	508
3351.2	511.5
3349.87	511
3348.54	523
3347.22	516.5
3345.89	522.5
3344.56	526
3343.23	523.5
3341.9	513.5
3340.57	522.5
3339.24	525.5
3337.91	531
3336.58	527
3335.25	531
3333.92	524.5
3332.58	532
3331.25	544.5
3329.92	540.5
3328.59	543.5
3327.25	548
3325.92	550.5
3324.58	555.5
3323.25	556.5
3321.92	559
3320.58	560.5
3319.25	561.5
3317.91	570.5
3316.57	579
3315.24	581
3313.9	588.5
3312.56	576
3311.23	575
3309.89	587.5
3308.55	580
3307.21	597
3305.87	588.5
3304.53	606
3303.19	600
3301.85	613.5
3300.51	605
3299.17	593.5
3297.83	600.5
3296.49	616
3295.15	610
3293.81	607
3292.46	627.5
3291.12	620
3289.78	625.5
3288.43	625
3287.09	645
3285.75	630.5
3284.4	639
3283.06	639
3281.71	637
3280.37	646
3279.02	649.5
3277.67	667
3276.33	657
3274.98	658
3273.63	670.5
3272.28	675.5
3270.94	679
3269.59	678.5
3268.24	686.5
3266.89	690.5
3265.54	691
3264.19	722
3262.84	744.5
3261.49	738.5
3260.14	754
3258.79	746
3257.44	783.5
3256.08	806.5
3254.73	809
3253.38	830
3252.03	861.5
3250.67	864.5
3249.32	872.5
3247.96	929
3246.61	926
3245.26	966
3243.9	970.5
3242.54	1005
3241.19	1037.5
3239.83	1053.5
3238.48	1081.5
3237.12	1092
3235.76	1126.5
3234.41	1160.5
3233.05	1181.5
3231.69	1210
3230.33	1240.5
3228.97	1252
3227.61	1277.5
3226.25	1302.5
3224.89	1318.5
3223.53	1339.5
3222.17	1342.5
3220.81	1377.5
3219.45	1364
3218.09	1397
3216.72	1405
3215.36	1411
3214	1409
3212.63	1445.5
3211.27	1443
3209.91	1446.5
3208.54	1456
3207.18	1483
3205.81	1487
3204.45	1497.5
3203.08	1498.5
3201.71	1509
3200.35	1503
3198.98	1524
3197.61	1535.5
3196.25	1523.5
3194.88	1564
3193.51	1568.5
3192.14	1573
3190.77	1587
3189.4	1581
3188.03	1579.5
3186.66	1584
3185.29	1623.5
3183.92	1632
3182.55	1606.5
3181.18	1637.5
3179.81	1634.5
3178.44	1655
3177.06	1664
3175.69	1660.5
3174.32	1668.5
3172.94	1695.5
3171.57	1712.5
3170.2	1723.5
3168.82	1732.5
3167.45	1743.5
3166.07	1742
3164.69	1774
3163.32	1773
3161.94	1785
3160.56	1806.5
3159.19	1807
3157.81	1843.5
3156.43	1862
3155.05	1864
3153.67	1884
3152.3	1904.5
3150.92	1894.5
3149.54	1914.5
3148.16	1914
3146.78	1917
3145.4	1924.5
3144.01	1964
3142.63	1980.5
3141.25	1988.5
3139.87	2002
3138.49	2000
3137.1	2045
3135.72	2057.5
3134.34	2080
3132.95	2055.5
3131.57	2081
3130.18	2094
3128.8	2092
3127.41	2131
3126.03	2123
3124.64	2161.5
3123.25	2165.5
3121.87	2188
3120.48	2192.5
3119.09	2200.5
3117.7	2218
3116.32	2227.5
3114.93	2223.5
3113.54	2237
3112.15	2278.5
3110.76	2259.5
3109.37	2267
3107.98	2291
3106.59	2277.5
3105.2	2303.5
3103.8	2292.5
3102.41	2313.5
3101.02	2324.5
3099.63	2337.5
3098.23	2321.5
3096.84	2353
3095.45	2353
3094.05	2377
3092.66	2386.5
3091.26	2360.5
3089.87	2379.5
3088.47	2412.5
3087.08	2415
3085.68	2405
3084.28	2428.5
3082.89	2411.5
3081.49	2438
3080.09	2409.5
3078.69	2460.5
3077.3	2443
3075.9	2449
3074.5	2456.5
3073.1	2456
3071.7	2466.5
3070.3	2485
3068.9	2491.5
3067.5	2482.5
3066.09	2492.5
3064.69	2493.5
3063.29	2509
3061.89	2506.5
3060.48	2515.5
3059.08	2515.5
3057.68	2523
3056.27	2533.5
3054.87	2526.5
3053.46	2558.5
3052.06	2577.5
3050.65	2577
3049.25	2573
3047.84	2592
3046.44	2584.5
3045.03	2606
3043.62	2638.5
3042.21	2628
3040.81	2621
3039.4	2675
3037.99	2653
3036.58	2664
3035.17	2678.5
3033.76	2705.5
3032.35	2702
3030.94	2665
3029.53	2689.5
3028.12	2699.5
3026.71	2711
3025.29	2692
3023.88	2715.5
3022.47	2723
3021.06	2725
3019.64	2702
3018.23	2704.5
3016.82	2746.5
3015.4	2730
3013.99	2744.5
3012.57	2731.5
3011.15	2740.5
3009.74	2760
3008.32	2782
3006.91	2776
3005.49	2799
3004.07	2792.5
3002.65	2807
3001.24	2821
2999.82	2814.5
2998.4	2833.5
2996.98	2848.5
2995.56	2820.5
2994.14	2856.5
2992.72	2893
2991.3	2891.5
2989.88	2892
2988.46	2935.5
2987.03	2938.5
2985.61	2957
2984.19	2983
2982.77	2965
2981.34	3024
2979.92	3030.5
2978.49	3032
2977.07	3055
2975.65	3064.5
2974.22	3071
2972.79	3083
2971.37	3106.5
2969.94	3111.5
2968.52	3128
2967.09	3140.5
2965.66	3138.5
2964.23	3166
2962.81	3155
2961.38	3173.5
2959.95	3177
2958.52	3206.5
2957.09	3183.5
2955.66	3216.5
2954.23	3233.5
2952.8	3212
2951.37	3239.5
2949.94	3218.5
2948.5	3221.5
2947.07	3228
2945.64	3244
2944.21	3225
2942.77	3247.5
2941.34	3292
2939.91	3295.5
2938.47	3310
2937.04	3329
2935.6	3319.5
2934.17	3310
2932.73	3352.5
2931.29	3371.5
2929.86	3387
2928.42	3381
2926.98	3397
2925.55	3400
2924.11	3419
2922.67	3419
2921.23	3422.5
2919.79	3450
2918.35	3446.5
2916.91	3431.5
2915.47	3428
2914.03	3442
2912.59	3453
2911.15	3470.5
2909.71	3457
2908.26	3467.5
2906.82	3494.5
2905.38	3484
2903.94	3516
2902.49	3469
2901.05	3514
2899.6	3518.5
2898.16	3535.5
2896.71	3510.5
2895.27	3506.5
2893.82	3523
2892.38	3512
2890.93	3559.5
2889.48	3537.5
2888.03	3568
2886.59	3525
2885.14	3566.5
2883.69	3556.5
2882.24	3577.5
2880.79	3560.5
2879.34	3591.5
2877.89	3579.5
2876.44	3606
2874.99	3580.5
2873.54	3589
2872.09	3609.5
2870.64	3588.5
2869.18	3583
2867.73	3602
2866.28	3595.5
2864.83	3618
2863.37	3595
2861.92	3610
2860.46	3617
2859.01	3640.5
2857.55	3648
2856.1	3623
2854.64	3629.5
2853.19	3612.5
2851.73	3625.5
2850.27	3621
2848.81	3617
2847.36	3611
2845.9	3616
2844.44	3605
2842.98	3594
2841.52	3571.5
2840.06	3562
2838.6	3584.5
2837.14	3566
2835.68	3555.5
2834.22	3527
2832.76	3531
2831.3	3520.5
2829.83	3530.5
2828.37	3501
2826.91	3485.5
2825.44	3496.5
2823.98	3482.5
2822.52	3492
2821.05	3493.5
2819.59	3472
2818.12	3468.5
2816.66	3469
2815.19	3482
2813.72	3479
2812.26	3461.5
2810.79	3451.5
2809.32	3452
2807.85	3452.5
2806.38	3428.5
2804.92	3442
2803.45	3456
2801.98	3465.5
2800.51	3442
2799.04	3434.5
2797.57	3432
2796.1	3420.5
2794.62	3435.5
2793.15	3419
2791.68	3419
2790.21	3397
2788.73	3402
2787.26	3406
2785.79	3417
2784.31	3379
2782.84	3403
2781.36	3391
2779.89	3408.5
2778.41	3438.5
2776.94	3428.5
2775.46	3432
2773.99	3437
2772.51	3437
2771.03	3424.5
2769.55	3454
2768.07	3463
2766.6	3432.5
2765.12	3449
2763.64	3415
2762.16	3420
2760.68	3448.5
2759.2	3438.5
2757.72	3424
2756.24	3420
2754.75	3421
2753.27	3419
2751.79	3413
2750.31	3388
2748.82	3414
2747.34	3407
2745.86	3423.5
2744.37	3411
2742.89	3429.5
2741.4	3418
2739.92	3394.5
2738.43	3366.5
2736.94	3393.5
2735.46	3412.5
2733.97	3378.5
2732.48	3391.5
2731	3415.5
2729.51	3396
2728.02	3400
2726.53	3375.5
2725.04	3397
2723.55	3372
2722.06	3401.5
2720.57	3346.5
2719.08	3388
2717.59	3385
2716.1	3386.5
2714.61	3398.5
2713.11	3371
2711.62	3398
2710.13	3378.5
2708.64	3376.5
2707.14	3379
2705.65	3359.5
2704.15	3370.5
2702.66	3323.5
2701.16	3335.5
2699.67	3339
2698.17	3322
2696.67	3326
2695.18	3316
2693.68	3330
2692.18	3325.5
2690.69	3317.5
2689.19	3300.5
2687.69	3313
2686.19	3288.5
2684.69	3284.5
2683.19	3277
2681.69	3264
2680.19	3267.5
2678.69	3275
2677.19	3264
2675.68	3240.5
2674.18	3260
2672.68	3246
2671.18	3266
2669.67	3227.5
2668.17	3257.5
2666.66	3232.5
2665.16	3236.5
2663.66	3233
2662.15	3235
2660.64	3227
2659.14	3189
2657.63	3222
2656.13	3213.5
2654.62	3210.5
2653.11	3236
2651.6	3198
2650.09	3192
2648.58	3168
2647.08	3163.5
2645.57	3158
2644.06	3170.5
2642.55	3180.5
2641.04	3141.5
2639.52	3145.5
2638.01	3133.5
2636.5	3114
2634.99	3115
2633.48	3107.5
2631.96	3110
2630.45	3094
2628.94	3077.5
2627.42	3092.5
2625.91	3080
2624.39	3089.5
2622.88	3079.5
2621.36	3099.5
2619.85	3093
2618.33	3101
2616.81	3090.5
2615.3	3068.5
2613.78	3074.5
2612.26	3083
2610.74	3039
2609.22	3038
2607.7	3013
2606.18	3029
2604.66	3027.5
2603.14	2995.5
2601.62	2993.5
2600.1	2954
2598.58	2956.5
2597.06	2949.5
2595.54	2952.5
2594.01	2947.5
2592.49	2967
2590.97	2926.5
2589.44	2956
2587.92	2948.5
2586.39	2931
2584.87	2931
2583.34	2948.5
2581.82	2923
2580.29	2928.5
2578.76	2904.5
2577.24	2921.5
2575.71	2917.5
2574.18	2891.5
2572.65	2934
2571.13	2878.5
2569.6	2886
2568.07	2922
2566.54	2897.5
2565.01	2909
2563.48	2873
2561.95	2858.5
2560.42	2874.5
2558.88	2853.5
2557.35	2854
2555.82	2845
2554.29	2809
2552.75	2826.5
2551.22	2821.5
2549.69	2791
2548.15	2783
2546.62	2819
2545.08	2796.5
2543.55	2778.5
2542.01	2768.5
2540.47	2804
2538.94	2762
2537.4	2742.5
2535.86	2740.5
2534.33	2771
2532.79	2751.5
2531.25	2745.5
2529.71	2721.5
2528.17	2751
2526.63	2720.5
2525.09	2714
2523.55	2686.5
2522.01	2690.5
2520.47	2685
2518.92	2651
2517.38	2673
2515.84	2678
2514.3	2640.5
2512.75	2671
2511.21	2625.5
2509.67	2620
2508.12	2585
2506.58	2618
2505.03	2585
2503.49	2582.5
2501.94	2552.5
2500.39	2561
2498.85	2539
2497.3	2541.5
2495.75	2542.5
2494.2	2511.5
2492.65	2526.5
2491.11	2510
2489.56	2511.5
2488.01	2490.5
2486.46	2529
2484.91	2506.5
2483.36	2478
2481.8	2481
2480.25	2477
2478.7	2483
2477.15	2448.5
2475.6	2448
2474.04	2418
2472.49	2406
2470.93	2408.5
2469.38	2378.5
2467.83	2364
2466.27	2372
2464.71	2364.5
2463.16	2371.5
2461.6	2344
2460.05	2364.5
2458.49	2320
2456.93	2335.5
2455.37	2320
2453.81	2318.5
2452.26	2316
2450.7	2276.5
2449.14	2289.5
2447.58	2264
2446.02	2253.5
2444.46	2243
2442.9	2257
2441.33	2261
2439.77	2245
2438.21	2260
2436.65	2258.5
2435.08	2231
2433.52	2241
2431.96	2219
2430.39	2195
2428.83	2187.5
2427.26	2199
2425.7	2206
2424.13	2188.5
2422.56	2189
2421	2166.5
2419.43	2179
2417.86	2135
2416.3	2167
2414.73	2154.5
2413.16	2152.5
2411.59	2166.5
2410.02	2160.5
2408.45	2151
2406.88	2151.5
2405.31	2131.5
2403.74	2159.5
2402.17	2139
2400.6	2109.5
2399.02	2120.5
2397.45	2104
2395.88	2110.5
2394.3	2097
2392.73	2133.5
2391.16	2102.5
2389.58	2107.5
2388.01	2109
2386.43	2102
2384.86	2101
2383.28	2071
2381.7	2091
2380.13	2112
2378.55	2105.5
2376.97	2079
2375.39	2079.5
2373.81	2065
2372.23	2068.5
2370.65	2070
2369.07	2046.5
2367.49	2026.5
2365.91	2023.5
2364.33	2017.5
2362.75	2036
2361.17	2007.5
2359.59	1985.5
2358.01	2008
2356.42	2015
2354.84	2025.5
2353.25	1986
2351.67	2013
2350.09	2007.5
2348.5	1997.5
2346.92	1995
2345.33	1991
2343.74	1987.5
2342.16	1995.5
2340.57	1979
2338.98	1970.5
2337.39	1967
2335.81	1961
2334.22	1966.5
2332.63	1968.5
2331.04	1956
2329.45	1950.5
2327.86	1936.5
2326.27	1922
2324.68	1942.5
2323.09	1915
2321.49	1918
2319.9	1916.5
2318.31	1875
2316.72	1884
2315.12	1883
2313.53	1891
2311.93	1855.5
2310.34	1863
2308.74	1853.5
2307.15	1852
2305.55	1825
2303.96	1840.5
2302.36	1821
2300.76	1820
2299.17	1826.5
2297.57	1822.5
2295.97	1816.5
2294.37	1823
2292.77	1787.5
2291.17	1814
2289.57	1791
2287.97	1773.5
2286.37	1785.5
2284.77	1766
2283.17	1781.5
2281.57	1769
2279.96	1770.5
2278.36	1779
2276.76	1749.5
2275.15	1762
2273.55	1735.5
2271.95	1739
2270.34	1718.5
2268.74	1733.5
2267.13	1704.5
2265.52	1692.5
2263.92	1707.5
2262.31	1680.5
2260.7	1693
2259.1	1673
2257.49	1675.5
2255.88	1671
2254.27	1688
2252.66	1667
2251.05	1643
2249.44	1670
2247.83	1671.5
2246.22	1676.5
2244.61	1643
2243	1658.5
2241.39	1656.5
2239.77	1654
2238.16	1631.5
2236.55	1645
2234.93	1622
2233.32	1606
2231.7	1617.5
2230.09	1616
2228.47	1606
2226.86	1582.5
2225.24	1593.5
2223.63	1589.5
2222.01	1591.5
2220.39	1587
2218.77	1577.5
2217.16	1543
2215.54	1551
2213.92	1555
2212.3	1538
2210.68	1531.5
2209.06	1547
2207.44	1512
2205.82	1531.5
2204.19	1512.5
2202.57	1515.5
2200.95	1511
2199.33	1519
2197.7	1508.5
2196.08	1494.5
2194.46	1482.5
2192.83	1481.5
2191.21	1479.5
2189.58	1475.5
2187.96	1472
2186.33	1472.5
2184.7	1467.5
2183.08	1458.5
2181.45	1458
2179.82	1461.5
2178.19	1432
2176.57	1435.5
2174.94	1449.5
2173.31	1429.5
2171.68	1415
2170.05	1408.5
2168.42	1400.5
2166.79	1405.5
2165.16	1396
2163.52	1388
2161.89	1372.5
2160.26	1380.5
2158.63	1367.5
2156.99	1376.5
2155.36	1356
2153.73	1358
2152.09	1352
2150.46	1361
2148.82	1344.5
2147.18	1343.5
2145.55	1335
2143.91	1302
2142.27	1326
2140.64	1298
2139	1310
2137.36	1310.5
2135.72	1294.5
2134.08	1305
2132.44	1288
2130.8	1287.5
2129.16	1265.5
2127.52	1282
2125.88	1254.5
2124.24	1235.5
2122.6	1235.5
2120.95	1222
2119.31	1221.5
2117.67	1228.5
2116.02	1217
2114.38	1225
2112.74	1226.5
2111.09	1208
2109.45	1198
2107.8	1207.5
2106.15	1193.5
2104.51	1190.5
2102.86	1192
2101.21	1172
2099.56	1183
2097.92	1174.5
2096.27	1187
2094.62	1160
2092.97	1173
2091.32	1172
2089.67	1180
2088.02	1160
2086.37	1164
2084.72	1167.5
2083.06	1175.5
2081.41	1149.5
2079.76	1131.5
2078.1	1153.5
2076.45	1152.5
2074.8	1138.5
2073.14	1155.5
2071.49	1123.5
2069.83	1117.5
2068.18	1126
2066.52	1119.5
2064.86	1128
2063.21	1102.5
2061.55	1107.5
2059.89	1096.5
2058.23	1107
2056.57	1115
2054.92	1107.5
2053.26	1086.5
2051.6	1097.5
2049.94	1086
2048.27	1073.5
2046.61	1072
2044.95	1074.5
2043.29	1087
2041.63	1066.5
2039.97	1047.5
2038.3	1050
2036.64	1048
2034.97	1045.5
2033.31	1056
2031.64	1042.5
2029.98	1026
2028.31	1018
2026.65	1019.5
2024.98	1008.5
2023.31	995
2021.65	1013
2019.98	1004.5
2018.31	1005
2016.64	996.5
2014.97	995.5
2013.3	996
2011.63	987
2009.96	984.5
2008.29	983
2006.62	962
2004.95	969
2003.28	958
2001.6	956
1999.93	956
1998.26	951.5
1996.58	959.5
1994.91	957
1993.24	946.5
1991.56	955.5
1989.89	943.5
1988.21	936.5
1986.53	936.5
1984.86	926
1983.18	922
1981.5	918
1979.82	926
1978.15	902
1976.47	919
1974.79	899.5
1973.11	909
1971.43	915
1969.75	886.5
1968.07	887.5
1966.38	877.5
1964.7	884
1963.02	893
1961.34	878
1959.66	876
1957.97	854
1956.29	865
1954.6	877
1952.92	864.5
1951.23	850
1949.55	843
1947.86	855
1946.18	836.5
1944.49	831
1942.8	833.5
1941.11	828.5
1939.43	826.5
1937.74	824.5
1936.05	826
1934.36	819.5
1932.67	817.5
1930.98	817
1929.29	794
1927.6	805.5
1925.91	792.5
1924.21	796
1922.52	795.5
1920.83	787
1919.14	781.5
1917.44	792.5
1915.75	781.5
1914.05	771
1912.36	786
1910.66	760.5
1908.97	770
1907.27	757
1905.58	771
1903.88	758
1902.18	752.5
1900.48	740
1898.79	734
1897.09	738
1895.39	728.5
1893.69	728
1891.99	728.5
1890.29	708.5
1888.59	711
1886.89	727.5
1885.18	713.5
1883.48	719
1881.78	705
1880.08	697
1878.37	705
1876.67	698.5
1874.96	690
1873.26	681.5
1871.55	677.5
1869.85	671
1868.14	677
1866.44	673.5
1864.73	671.5
1863.02	676
1861.32	657.5
1859.61	660.5
1857.9	660.5
1856.19	666
1854.48	645.5
1852.77	657.5
1851.06	657
1849.35	643.5
1847.64	648.5
1845.93	658.5
1844.21	650.5
1842.5	637.5
1840.79	637
1839.08	641
1837.36	637.5
1835.65	635.5
1833.93	609.5
1832.22	619
1830.5	628
1828.79	601
1827.07	615
1825.36	616.5
1823.64	595.5
1821.92	610.5
1820.2	607
1818.48	606.5
1816.77	585
1815.05	586.5
1813.33	576
1811.61	596.5
1809.89	585
1808.16	590.5
1806.44	577
1804.72	577
1803	572
1801.28	578
1799.55	576
1797.83	578
1796.11	550.5
1794.38	546
1792.66	556
1790.93	557.5
1789.21	537.5
1787.48	542
1785.75	544
1784.03	545
1782.3	542.5
1780.57	543
1778.84	535.5
1777.11	531.5
1775.38	536
1773.66	545.5
1771.93	550.5
1770.19	534
1768.46	540
1766.73	535
1765	541.5
1763.27	529
1761.54	556
1759.8	540.5
1758.07	545
1756.34	566
1754.6	562
1752.87	553
1751.13	555.5
1749.4	569
1747.66	571
1745.92	566.5
1744.19	557
1742.45	568.5
1740.71	554
1738.97	541.5
1737.23	545.5
1735.49	517
1733.75	528.5
1732.01	522
1730.27	507
1728.53	510.5
1726.79	496.5
1725.05	501.5
1723.31	484
1721.57	493.5
1719.82	498.5
1718.08	487
1716.34	476
1714.59	469
1712.85	463.5
1711.1	469
1709.36	476
1707.61	468.5
1705.86	474.5
1704.12	471
1702.37	461
1700.62	450.5
1698.87	464.5
1697.12	466
1695.37	450
1693.62	446.5
1691.87	453
1690.12	450
1688.37	443.5
1686.62	442
1684.87	441.5
1683.12	447.5
1681.36	445.5
1679.61	452
1677.86	445
1676.1	460.5
1674.35	468
1672.59	472
1670.84	471
1669.08	475.5
1667.33	496
1665.57	510
1663.81	543
1662.06	566
1660.3	566
1658.54	591
1656.78	601
1655.02	584.5
1653.26	545
1651.5	530
1649.74	516.5
1647.98	502.5
1646.22	473.5
1644.46	455.5
1642.7	449
1640.93	436
1639.17	425
1637.41	418.5
1635.64	413
1633.88	407.5
1632.11	395
1630.35	394
1628.58	407
1626.81	395.5
1625.05	397.5
1623.28	392.5
1621.51	392.5
1619.75	375.5
1617.98	371.5
1616.21	381
1614.44	375.5
1612.67	381
1610.9	371
1609.13	373
1607.36	374
1605.58	373
1603.81	373
1602.04	363.5
1600.27	364
1598.49	346.5
1596.72	372
1594.95	359.5
1593.17	354.5
1591.4	347
1589.62	349
1587.84	370.5
1586.07	365
1584.29	347
1582.51	357
1580.74	368.5
1578.96	348
1577.18	351
1575.4	367
1573.62	342.5
1571.84	339
1570.06	338.5
1568.28	319
1566.5	347
1564.72	346
1562.93	351
1561.15	334.5
1559.37	341.5
1557.58	346
1555.8	346
1554.02	343
1552.23	331.5
1550.45	324
1548.66	315.5
1546.87	321.5
1545.09	321
1543.3	320
1541.51	320.5
1539.72	319.5
1537.94	309.5
1536.15	321
1534.36	325.5
1532.57	314
1530.78	306
1528.99	308
1527.2	299.5
1525.4	323.5
1523.61	311.5
1521.82	320
1520.03	317
1518.23	320
1516.44	315.5
1514.65	318.5
1512.85	310.5
1511.06	305
1509.26	317
1507.46	321.5
1505.67	314.5
1503.87	321.5
1502.07	314
1500.28	319.5
1498.48	326.5
1496.68	328.5
1494.88	320
1493.08	329.5
1491.28	324
1489.48	332
1487.68	335
1485.88	332
1484.08	351
1482.27	358.5
1480.47	362
1478.67	378
1476.86	392
1475.06	399.5
1473.25	421
1471.45	442.5
1469.64	456.5
1467.84	488.5
1466.03	506
1464.23	518
1462.42	557.5
1460.61	576
1458.8	604
1456.99	623.5
1455.18	640
1453.37	651
1451.56	672
1449.75	689
1447.94	698
1446.13	728
1444.32	748.5
1442.51	771.5
1440.7	761
1438.88	744.5
1437.07	698.5
1435.26	645.5
1433.44	584
1431.63	545.5
1429.81	483.5
1427.99	455.5
1426.18	411
1424.36	397
1422.54	377.5
1420.73	363.5
1418.91	340.5
1417.09	347
1415.27	328
1413.45	323
1411.63	310
1409.81	311
1407.99	296
1406.17	297
1404.35	283
1402.53	284.5
1400.7	281
1398.88	282
1397.06	274
1395.23	283.5
1393.41	263
1391.58	270.5
1389.76	257
1387.93	264.5
1386.11	265
1384.28	265.5
1382.45	270.5
1380.62	264
1378.8	269
1376.97	277
1375.14	282
1373.31	270.5
1371.48	296.5
1369.65	265.5
1367.82	287.5
1365.99	273
1364.16	267
1362.32	268.5
1360.49	281.5
1358.66	268.5
1356.82	267.5
1354.99	275.5
1353.16	270.5
1351.32	274
1349.48	275
1347.65	266
1345.81	274
1343.98	275.5
1342.14	270
1340.3	272
1338.46	281
1336.62	275
1334.79	296
1332.95	295
1331.11	309.5
1329.27	310
1327.42	322
1325.58	326
1323.74	342.5
1321.9	354.5
1320.06	365
1318.21	400
1316.37	410.5
1314.53	438.5
1312.68	460
1310.84	463.5
1308.99	513.5
1307.15	534.5
1305.3	553
1303.45	562.5
1301.61	561
1299.76	554.5
1297.91	531.5
1296.06	515.5
1294.21	456
1292.36	423
1290.51	423.5
1288.66	399.5
1286.81	381
1284.96	362
1283.11	373
1281.26	378.5
1279.4	349
1277.55	368
1275.7	355.5
1273.84	374
1271.99	377.5
1270.13	389.5
1268.28	383
1266.42	383
1264.56	369
1262.71	363
1260.85	359
1258.99	353.5
1257.13	325.5
1255.27	318
1253.41	322
1251.56	308.5
1249.7	295.5
1247.83	281.5
1245.97	279.5
1244.11	278.5
1242.25	261.5
1240.39	274.5
1238.52	253
1236.66	251.5
1234.8	247
1232.93	246
1231.07	233
1229.2	237
1227.34	244
1225.47	228.5
1223.6	231.5
1221.74	225.5
1219.87	222.5
1218	217.5
1216.13	224
1214.26	212
1212.39	207.5
1210.53	206
1208.65	207.5
1206.78	220.5
1204.91	213
1203.04	221
1201.17	216.5
1199.3	212.5
1197.42	200.5
1195.55	205.5
1193.68	207
1191.8	207
1189.93	195
1188.05	196.5
1186.17	210.5
1184.3	207
1182.42	204.5
1180.54	198
1178.67	203.5
1176.79	201.5
1174.91	201.5
1173.03	203.5
1171.15	205.5
1169.27	203.5
1167.39	199.5
1165.51	205
1163.63	204.5
1161.75	201
1159.86	200
1157.98	206
1156.1	198
1154.21	208
1152.33	218.5
1150.44	207
1148.56	213.5
1146.67	212
1144.79	202
1142.9	219
1141.01	213
1139.12	215
1137.24	218
1135.35	235.5
1133.46	253.5
1131.57	265
1129.68	272.5
1127.79	275
1125.9	283
1124.01	277
1122.12	279.5
1120.22	277.5
1118.33	267.5
1116.44	274.5
1114.54	271
1112.65	270
1110.75	259
1108.86	264
1106.96	273.5
1105.07	275
1103.17	286.5
1101.27	294
1099.38	308
1097.48	329
1095.58	350
1093.68	349
1091.78	364.5
1089.88	385
1087.98	389.5
1086.08	388.5
1084.18	399.5
1082.28	403.5
1080.38	405
1078.47	410
1076.57	391.5
1074.67	382.5
1072.76	392
1070.86	387
1068.95	383
1067.05	381.5
1065.14	394
1063.24	379.5
1061.33	376
1059.42	345
1057.51	313.5
1055.6	306
1053.7	302
1051.79	287.5
1049.88	290
1047.97	266.5
1046.06	274
1044.14	270
1042.23	273.5
1040.32	268.5
1038.41	264
1036.5	269.5
1034.58	271.5
1032.67	274
1030.75	260.5
1028.84	267.5
1026.92	260.5
1025.01	267.5
1023.09	268.5
1021.17	262
1019.26	260
1017.34	253.5
1015.42	257.5
1013.5	267
1011.58	248.5
1009.66	241
1007.74	242
1005.82	250.5
1003.9	249.5
1001.98	254
1000.06	247
998.134	237.5
996.212	249.5
994.288	250.5
992.364	249.5
990.44	252
988.515	267
986.589	268
984.663	274
982.737	294
980.81	299
978.883	300.5
976.955	305.5
975.027	327.5
973.098	324
971.169	325.5
969.239	326.5
967.308	329
965.378	325
963.447	323
961.516	325
959.583	331
957.65	330.5
955.718	324
953.784	330
951.85	324.5
949.916	334
947.981	342
946.045	341
944.109	351.5
942.173	350.5
940.236	348.5
938.298	348.5
936.36	355
934.422	343
932.484	324
930.544	314
928.604	311
926.664	301.5
924.724	301
922.782	297
920.84	292.5
918.898	294
916.955	283
915.012	290
913.068	290.5
911.124	295
909.18	289.5
907.235	297.5
905.289	288
903.343	306
901.397	301
899.45	313
897.502	315
895.554	322.5
893.605	342
891.657	334.5
889.707	339.5
887.758	332.5
885.807	336
883.856	343
881.905	342
879.953	341.5
878.001	348.5
876.048	342
874.094	360
872.14	364.5
870.186	346
868.232	349.5
866.276	346
864.321	339.5
862.365	346.5
860.408	330.5
858.451	334
856.493	343
854.535	329
852.576	340
850.617	341
848.658	335
846.698	327
844.737	318
842.776	319
840.814	312
838.852	302.5
836.89	291
834.927	292
832.963	284
830.999	272.5
829.035	261.5
827.07	254
825.105	249
823.139	242
821.172	238
819.206	237
817.238	239.5
815.27	227
813.301	225.5
811.333	220
809.363	216.5
807.394	206.5
805.424	199
803.453	195
801.482	189
799.509	190
797.538	178
795.565	174.5
793.592	169.5
791.618	166.5
789.643	176
787.669	171.5
785.693	172
783.718	176.5
781.742	169
779.765	172.5
777.788	164
775.811	163
773.832	174.5
771.853	171
769.875	167
767.895	175
765.915	161.5
763.934	166
761.953	167.5
759.972	173.5
757.99	171
756.007	150
754.024	160
752.041	167
750.056	164
748.072	153.5
746.087	159
744.102	157.5
742.116	165.5
740.13	176.5
738.143	169
736.155	170
734.167	166.5
732.179	171.5
730.19	172
728.2	174
726.21	172.5
724.22	167
722.229	178.5
720.237	165
718.246	160
716.253	164
714.26	158.5
712.267	152
710.273	152
708.279	153.5
706.284	152.5
704.289	148
702.293	148
700.296	146.5
698.3	140.5
696.303	140
694.305	144
692.307	151
690.307	148.5
688.308	146
686.309	146
684.308	156
682.308	145
680.306	138
678.304	133.5
676.302	134
674.3	149
672.296	153
670.293	150
668.289	151
666.284	154
664.278	155
662.273	148
660.266	145
658.26	154.5
656.252	139.5
654.244	148
652.237	156.5
650.227	155
648.218	158.5
646.209	153.5
644.198	151.5
642.188	162
640.177	159
638.165	157.5
636.153	164
634.14	159
632.128	168.5
630.113	163
628.099	163.5
626.085	164
624.07	174.5
622.054	169
620.038	173.5
618.021	178
616.004	165.5
613.986	180
611.968	174
609.949	181.5
607.93	179
605.911	182
603.891	181.5
601.87	173.5
599.848	180.5
597.827	181.5
595.805	173.5
593.782	169.5
591.759	177
589.735	169.5
587.711	169.5
585.687	163.5
583.661	166.5
581.636	173
579.609	158.5
577.583	173.5
575.555	173
573.527	163
571.5	153
569.471	169.5
567.441	156
565.412	168
563.382	164
561.351	175.5
559.32	172.5
557.289	175
555.257	188.5
553.223	190.5
551.19	194
549.157	208
547.122	207.5
545.088	211
543.053	225
541.017	240
538.981	271.5
536.943	307
534.907	386.5
532.869	494.5
530.831	695
528.792	1002
526.752	1558
524.713	2273
522.673	2737
520.632	2666
518.591	2155.5
516.549	1546
514.507	1068
512.464	731.5
510.42	509
508.377	398.5
506.332	321
504.288	293
502.242	275.5
500.196	254
498.15	233
496.104	234.5
494.056	234
492.008	237
489.96	218
487.911	214
485.862	226
483.812	218
481.761	215
479.71	220
477.659	203.5
475.607	203
473.555	199
471.502	211.5
469.448	219.5
467.395	211
465.34	214
463.285	204
461.23	209.5
459.174	211.5
457.118	216
455.061	211
453.003	204
450.945	214
448.887	215
446.828	227
444.768	219.5
442.708	214
440.647	220.5
438.587	226.5
436.525	242
434.463	226
432.4	228.5
430.337	236.5
428.274	234
426.21	236.5
424.145	234.5
422.079	246.5
420.014	235
417.948	250
415.882	251
413.814	239
411.746	253.5
409.679	253.5
407.609	245
405.54	251.5
403.47	258
401.401	254
399.329	257.5
397.258	244.5
395.187	248.5
393.114	243.5
391.041	260
388.968	262.5
386.895	250.5
384.82	257.5
382.745	263.5
380.67	244
378.594	245
376.517	257.5
374.44	267
372.363	251
370.286	272.5
368.207	274.5
366.128	273.5
364.049	276.5
361.969	265
359.888	280
357.807	272.5
355.725	279
353.643	280
351.561	287.5
349.477	290
347.394	283.5
345.31	301
343.226	299.5
341.141	297
339.055	302
336.968	299.5
334.882	311.5
332.795	309.5
330.707	306.5
328.618	322.5
326.53	316
324.44	327.5
322.351	336
320.26	341
318.17	350.5
316.078	375
313.987	383
311.895	382
309.802	389.5
307.708	416
305.614	428
303.52	411
301.425	421.5
299.329	412
297.233	411
295.137	412.5
293.039	410.5
290.942	403
288.844	391.5
286.745	384
284.647	389.5
282.546	393
280.446	398
278.346	398.5
276.245	400.5
274.143	405
272.041	416
269.939	411.5
267.835	413
265.731	422
263.627	416.5
261.522	431.5
259.417	435.5
257.311	442.5
255.204	439
253.098	452.5
250.99	452.5
248.882	476.5
246.774	477
244.664	485.5
242.555	477.5
240.445	484.5
238.334	490
236.223	503.5
234.112	507.5
232	503
229.888	520.5
227.775	518.5
225.661	541.5
223.546	546
221.431	549.5
219.316	537
217.201	547.5
215.084	556
212.967	537.5
210.85	561
208.732	552
206.614	557
204.495	562
202.375	572.5
200.256	553
198.135	564
196.014	565.5
193.893	557
191.771	582
189.648	562
187.525	575.5
185.401	561
183.277	565
181.152	576
179.027	570.5
176.901	569.5
174.775	583.5
172.648	593
170.521	606
168.393	599
166.265	614
164.136	637
162.007	624.5
159.876	654.5
157.746	654
155.615	675
153.483	699.5
151.351	700.5
149.219	732.5
147.086	738.5
144.952	759.5
142.818	775.5
140.684	802.5
138.548	809
136.413	834
134.276	838.5
132.139	888.5
130.002	913
127.864	942
125.725	981
123.587	1015.5
121.447	1038.5
119.307	1092
117.166	1116.5
115.026	1172.5
112.885	1203.5
110.743	1228
108.6	1263
106.456	1282.5
104.313	1305
102.169	1246
100.023	1222.5
97.8789	1137
95.7328	1012
93.5869	919
91.4392	750.5
89.2919	621
87.1447	484.5
84.9959	375
