3528.51	49
3527.23	52.5
3525.95	46
3524.67	51.5
3523.39	51
3522.1	53
3520.82	56.5
3519.54	47.5
3518.26	52
3516.97	53
3515.69	61
3514.4	58
3513.12	58.5
3511.84	55.5
3510.55	58
3509.26	58.5
3507.98	61.5
3506.69	52
3505.41	57.5
3504.12	53.5
3502.83	57.5
3501.54	55
3500.26	62
3498.97	58.5
3497.68	59.5
3496.39	57.5
3495.1	60
3493.81	71
3492.52	62
3491.23	68
3489.94	74.5
3488.65	71.5
3487.36	71
3486.07	64.5
3484.78	72.5
3483.49	76
3482.19	78
3480.9	77
3479.61	69
3478.31	72
3477.02	77
3475.73	71
3474.43	79
3473.14	73.5
3471.84	81
3470.54	86
3469.25	82.5
3467.95	77
3466.66	82.5
3465.36	79.5
3464.06	82
3462.76	76.5
3461.46	77
3460.17	85.5
3458.87	86
3457.57	88
3456.27	86.5
3454.97	90.5
3453.67	94.5
3452.37	85.5
3451.07	91.5
3449.77	87.5
3448.47	91
3447.16	96
3445.86	90
3444.56	97.5
3443.26	89
3441.95	105.5
3440.65	101
3439.35	103
3438.04	112
3436.74	102
3435.43	100
3434.13	106.5
3432.82	116
3431.52	119.5
3430.21	111.5
3428.9	114.5
3427.6	121
3426.29	119
3424.98	123.5
3423.67	118
3422.36	127
3421.06	126.5
3419.75	126.5
3418.44	131.5
3417.13	139.5
3415.82	123
3414.51	134
3413.2	126.5
3411.88	135
3410.57	135
3409.26	138.5
3407.95	141
3406.64	134.5
3405.32	138.5
3404.01	133
3402.7	138.5
3401.38	141
3400.07	142
3398.75	143
3397.44	140
3396.12	146
3394.81	155.5
3393.49	156.5
3392.18	150
3390.86	158.5
3389.54	151
3388.23	155
3386.91	153
3385.59	154
3384.27	152
3382.95	153
3381.63	154
3380.31	176.5
3378.99	162.5
3377.67	164
3376.35	166
3375.03	169.5
3373.71	168
3372.39	167.5
3371.07	164.5
3369.75	171
3368.42	181
3367.1	182
3365.78	181.5
3364.45	171.5
3363.13	181
3361.81	187.5
3360.48	185
3359.16	181
3357.83	179
3356.51	189.5
3355.18	192
3353.85	178
3352.53	189.5
3351.2	190.5
3349.87	193.5
3348.54	190
3347.22	191.5
3345.89	194.5
3344.56	187
3343.23	191
3341.9	183.5
3340.57	189.5
3339.24	196.5
3337.91	203
3336.58	196
3335.25	194
3333.92	200
3332.58	193
3331.25	200.5
3329.92	194.5
3328.59	205
3327.25	200.5
3325.92	202.5
3324.58	194.5
3323.25	204
3321.92	207
3320.58	217.5
3319.25	200.5
3317.91	207
3316.57	215.5
3315.24	219.5
3313.9	206.5
3312.56	209
3311.23	211
3309.89	215
3308.55	208
3307.21	221.5
3305.87	220.5
3304.53	224
3303.19	217.5
3301.85	223
3300.51	225.5
3299.17	220
3297.83	219.5
3296.49	227
3295.15	218.5
3293.81	220
3292.46	233.5
3291.12	227
3289.78	232
3288.43	228
3287.09	239.5
3285.75	239
3284.4	236.5
3283.06	232.5
3281.71	233.5
3280.37	231
3279.02	238.5
3277.67	247
3276.33	237.5
3274.98	238.5
3273.63	250
3272.28	250.5
3270.94	257.5
3269.59	251.5
3268.24	254.5
3266.89	253.5
3265.54	262.5
3264.19	265
3262.84	270.5
3261.49	282.5
3260.14	283.5
3258.79	289.5
3257.44	284
3256.08	296.5
3254.73	295.5
3253.38	305.5
3252.03	315.5
3250.67	323.5
3249.32	322.5
3247.96	350.5
3246.61	333.5
3245.26	352.5
3243.9	364.5
3242.54	379.5
3241.19	386
3239.83	384.5
3238.48	400
3237.12	413
3235.76	420
3234.41	420
3233.05	434.5
3231.69	445.5
3230.33	449
3228.97	453
3227.61	478
3226.25	472.5
3224.89	478.5
3223.53	487.5
3222.17	507.5
3220.81	506
3219.45	501.5
3218.09	506.5
3216.72	525.5
3215.36	508
3214	527
3212.63	531
3211.27	528
3209.91	533.5
3208.54	532.5
3207.18	539
3205.81	546
3204.45	545
3203.08	548
3201.71	559
3200.35	545.5
3198.98	560
3197.61	578
3196.25	562.5
3194.88	575.5
3193.51	570.5
3192.14	574
3190.77	587
3189.4	575
3188.03	589
3186.66	580.5
3185.29	592
3183.92	592
3182.55	598.5
3181.18	598.5
3179.81	600.5
3178.44	600.5
3177.06	607.5
3175.69	621
3174.32	612.5
3172.94	627.5
3171.57	629.5
3170.2	633
3168.82	651
3167.45	627
3166.07	647.5
3164.69	652.5
3163.32	654
3161.94	653.5
3160.56	673
3159.19	658
3157.81	664.5
3156.43	660
3155.05	689.5
3153.67	679
3152.3	711
3150.92	690
3149.54	700.5
3148.16	718
3146.78	717.5
3145.4	716.5
3144.01	723
3142.63	731
3141.25	732.5
3139.87	751.5
3138.49	754
3137.1	756.5
3135.72	773
3134.34	750
3132.95	764
3131.57	762.5
3130.18	778
3128.8	788.5
3127.41	783.5
3126.03	776.5
3124.64	785
3123.25	806
3121.87	802
3120.48	794
3119.09	808
3117.7	827
3116.32	807.5
3114.93	810
3113.54	828.5
3112.15	830.5
3110.76	836
3109.37	827.5
3107.98	840.5
3106.59	845.5
3105.2	843.5
3103.8	836.5
3102.41	835
3101.02	858.5
3099.63	856
3098.23	850
3096.84	853.5
3095.45	857.5
3094.05	860.5
3092.66	875
3091.26	886.5
3089.87	862
3088.47	879.5
3087.08	887.5
3085.68	896
3084.28	891.5
3082.89	872.5
3081.49	892.5
3080.09	884.5
3078.69	900.5
3077.3	895.5
3075.9	880.5
3074.5	890
3073.1	912
3071.7	906
3070.3	919
3068.9	940.5
3067.5	917
3066.09	925
3064.69	924
3063.29	930
3061.89	940
3060.48	933.5
3059.08	919.5
3057.68	948
3056.27	943
3054.87	939.5
3053.46	963
3052.06	968.5
3050.65	947.5
3049.25	966
3047.84	960.5
3046.44	973.5
3045.03	957
3043.62	968
3042.21	958.5
3040.81	966.5
3039.4	981.5
3037.99	974.5
3036.58	999
3035.17	983
3033.76	1002.5
3032.35	976.5
3030.94	991.5
3029.53	996.5
3028.12	1013
3026.71	1007
3025.29	999.5
3023.88	1003.5
3022.47	1011
3021.06	1019
3019.64	1011
3018.23	1024.5
3016.82	1018.5
3015.4	1017.5
3013.99	1019
3012.57	1027.5
3011.15	1027
3009.74	1018.5
3008.32	1044
3006.91	1053
3005.49	1054
3004.07	1051.5
3002.65	1057
3001.24	1070.5
2999.82	1068
2998.4	1056
2996.98	1060.5
2995.56	1082.5
2994.14	1080
2992.72	1107.5
2991.3	1084
2989.88	1093.5
2988.46	1111.5
2987.03	1122.5
2985.61	1116.5
2984.19	1123.5
2982.77	1132.5
2981.34	1151.5
2979.92	1137
2978.49	1156
2977.07	1158.5
2975.65	1138
2974.22	1182
2972.79	1189
2971.37	1186
2969.94	1176
2968.52	1177
2967.09	1195
2965.66	1200.5
2964.23	1213.5
2962.81	1228
2961.38	1215
2959.95	1236
2958.52	1231
2957.09	1228
2955.66	1243.5
2954.23	1239.5
2952.8	1238
2951.37	1255
2949.94	1247
2948.5	1264
2947.07	1263.5
2945.64	1268
2944.21	1282
2942.77	1271.5
2941.34	1291.5
2939.91	1302
2938.47	1306.5
2937.04	1324
2935.6	1348
2934.17	1332
2932.73	1342
2931.29	1352
2929.86	1345
2928.42	1348
2926.98	1377.5
2925.55	1392.5
2924.11	1396.5
2922.67	1403.5
2921.23	1400.5
2919.79	1369
2918.35	1412.5
2916.91	1413
2915.47	1408.5
2914.03	1409
2912.59	1411
2911.15	1413.5
2909.71	1400
2908.26	1432.5
2906.82	1439
2905.38	1449.5
2903.94	1456
2902.49	1462.5
2901.05	1453
2899.6	1447
2898.16	1469.5
2896.71	1455
2895.27	1470.5
2893.82	1467.5
2892.38	1472.5
2890.93	1474.5
2889.48	1462.5
2888.03	1456
2886.59	1477.5
2885.14	1468.5
2883.69	1467.5
2882.24	1482
2880.79	1477.5
2879.34	1484
2877.89	1473
2876.44	1484.5
2874.99	1482.5
2873.54	1493
2872.09	1474
2870.64	1475
2869.18	1488
2867.73	1476
2866.28	1491.5
2864.83	1489.5
2863.37	1479.5
2861.92	1490.5
2860.46	1505
2859.01	1483
2857.55	1506.5
2856.1	1500
2854.64	1503
2853.19	1511.5
2851.73	1502
2850.27	1509.5
2848.81	1488.5
2847.36	1487.5
2845.9	1475
2844.44	1460
2842.98	1445.5
2841.52	1455
2840.06	1429.5
2838.6	1429
2837.14	1398.5
2835.68	1375
2834.22	1387
2832.76	1363.5
2831.3	1340
2829.83	1364
2828.37	1325
2826.91	1324.5
2825.44	1311.5
2823.98	1329
2822.52	1319
2821.05	1316.5
2819.59	1319.5
2818.12	1305
2816.66	1315
2815.19	1291.5
2813.72	1285
2812.26	1291.5
2810.79	1288
2809.32	1278
2807.85	1288.5
2806.38	1273.5
2804.92	1270.5
2803.45	1274
2801.98	1284.5
2800.51	1267.5
2799.04	1287.5
2797.57	1265
2796.1	1265
2794.62	1281.5
2793.15	1266
2791.68	1262.5
2790.21	1258.5
2788.73	1271.5
2787.26	1274.5
2785.79	1259.5
2784.31	1261
2782.84	1252.5
2781.36	1261
2779.89	1249.5
2778.41	1266
2776.94	1248.5
2775.46	1256
2773.99	1263
2772.51	1263
2771.03	1266.5
2769.55	1263.5
2768.07	1285.5
2766.6	1269
2765.12	1257.5
2763.64	1266.5
2762.16	1275.5
2760.68	1260.5
2759.2	1259
2757.72	1270.5
2756.24	1273.5
2754.75	1252.5
2753.27	1253
2751.79	1268.5
2750.31	1251
2748.82	1258.5
2747.34	1269.5
2745.86	1268.5
2744.37	1250
2742.89	1259
2741.4	1271
2739.92	1264.5
2738.43	1244
2736.94	1271.5
2735.46	1249
2733.97	1251.5
2732.48	1243.5
2731	1262
2729.51	1268.5
2728.02	1266.5
2726.53	1252
2725.04	1249.5
2723.55	1247.5
2722.06	1253.5
2720.57	1252
2719.08	1267
2717.59	1255
2716.1	1235
2714.61	1249
2713.11	1230
2711.62	1247
2710.13	1273
2708.64	1254
2707.14	1233.5
2705.65	1246
2704.15	1236.5
2702.66	1241
2701.16	1226.5
2699.67	1237
2698.17	1233
2696.67	1215.5
2695.18	1209.5
2693.68	1230.5
2692.18	1223.5
2690.69	1236
2689.19	1203
2687.69	1224.5
2686.19	1219.5
2684.69	1210
2683.19	1206.5
2681.69	1212.5
2680.19	1206.5
2678.69	1202
2677.19	1201
2675.68	1198.5
2674.18	1194.5
2672.68	1210
2671.18	1199
2669.67	1195.5
2668.17	1182
2666.66	1197
2665.16	1187.5
2663.66	1196.5
2662.15	1177.5
2660.64	1183
2659.14	1177.5
2657.63	1194.5
2656.13	1175
2654.62	1168.5
2653.11	1184.5
2651.6	1192.5
2650.09	1181.5
2648.58	1174
2647.08	1171
2645.57	1174
2644.06	1172
2642.55	1161
2641.04	1170.5
2639.52	1162
2638.01	1136.5
2636.5	1154
2634.99	1144
2633.48	1142
2631.96	1140.5
2630.45	1136.5
2628.94	1134.5
2627.42	1138
2625.91	1133.5
2624.39	1136.5
2622.88	1133
2621.36	1134
2619.85	1130
2618.33	1124
2616.81	1106
2615.3	1149.5
2613.78	1102.5
2612.26	1125
2610.74	1135
2609.22	1110
2607.7	1104.5
2606.18	1113
2604.66	1104
2603.14	1106.5
2601.62	1104
2600.1	1092.5
2598.58	1086
2597.06	1082.5
2595.54	1070
2594.01	1086
2592.49	1083
2590.97	1089.5
2589.44	1086
2587.92	1082.5
2586.39	1075
2584.87	1077
2583.34	1082
2581.82	1091
2580.29	1086
2578.76	1065.5
2577.24	1078.5
2575.71	1086.5
2574.18	1082.5
2572.65	1078.5
2571.13	1055
2569.6	1073
2568.07	1078
2566.54	1061.5
2565.01	1060.5
2563.48	1054
2561.95	1065
2560.42	1051
2558.88	1045
2557.35	1047.5
2555.82	1039.5
2554.29	1048.5
2552.75	1031.5
2551.22	1050
2549.69	1028
2548.15	1027
2546.62	1034.5
2545.08	1037
2543.55	1019
2542.01	1016.5
2540.47	1016.5
2538.94	1016
2537.4	1023.5
2535.86	1013
2534.33	1002.5
2532.79	1021.5
2531.25	993
2529.71	1001.5
2528.17	1002
2526.63	995.5
2525.09	994
2523.55	981
2522.01	985.5
2520.47	967
2518.92	967.5
2517.38	991
2515.84	969
2514.3	965.5
2512.75	976.5
2511.21	961.5
2509.67	966.5
2508.12	949
2506.58	946.5
2505.03	931
2503.49	952.5
2501.94	946
2500.39	945.5
2498.85	950
2497.3	948.5
2495.75	939
2494.2	934
2492.65	936
2491.11	925
2489.56	923
2488.01	912.5
2486.46	909
2484.91	910
2483.36	892.5
2481.8	908.5
2480.25	917
2478.7	895.5
2477.15	900
2475.6	903
2474.04	893.5
2472.49	880.5
2470.93	893.5
2469.38	880
2467.83	884
2466.27	880.5
2464.71	881.5
2463.16	881
2461.6	873
2460.05	872.5
2458.49	859.5
2456.93	862.5
2455.37	858
2453.81	844.5
2452.26	848.5
2450.7	833.5
2449.14	844
2447.58	837.5
2446.02	812
2444.46	819.5
2442.9	839
2441.33	836.5
2439.77	828.5
2438.21	830.5
2436.65	828.5
2435.08	814
2433.52	816.5
2431.96	824
2430.39	827
2428.83	811.5
2427.26	806
2425.7	812
2424.13	816.5
2422.56	819.5
2421	801.5
2419.43	797.5
2417.86	784
2416.3	796.5
2414.73	796.5
2413.16	802.5
2411.59	781
2410.02	795.5
2408.45	785
2406.88	808.5
2405.31	789.5
2403.74	794.5
2402.17	787
2400.6	787.5
2399.02	777
2397.45	790
2395.88	786
2394.3	798
2392.73	792.5
2391.16	768
2389.58	787
2388.01	781.5
2386.43	776.5
2384.86	772.5
2383.28	775
2381.7	769.5
2380.13	772.5
2378.55	769
2376.97	759
2375.39	752
2373.81	757
2372.23	746.5
2370.65	765
2369.07	754
2367.49	758
2365.91	733
2364.33	738
2362.75	747.5
2361.17	741.5
2359.59	721
2358.01	729
2356.42	735.5
2354.84	734
2353.25	737.5
2351.67	734.5
2350.09	736
2348.5	728.5
2346.92	728
2345.33	735
2343.74	725
2342.16	724.5
2340.57	720
2338.98	725
2337.39	718.5
2335.81	718
2334.22	721.5
2332.63	725.5
2331.04	719
2329.45	717
2327.86	711
2326.27	703.5
2324.68	703.5
2323.09	702.5
2321.49	712
2319.9	705
2318.31	701
2316.72	684
2315.12	679.5
2313.53	694
2311.93	679.5
2310.34	682.5
2308.74	675
2307.15	665
2305.55	675
2303.96	666.5
2302.36	683.5
2300.76	658
2299.17	654
2297.57	657.5
2295.97	662
2294.37	657
2292.77	669
2291.17	673
2289.57	663
2287.97	665.5
2286.37	648.5
2284.77	657.5
2283.17	655.5
2281.57	650.5
2279.96	665
2278.36	641.5
2276.76	659
2275.15	642.5
2273.55	634
2271.95	645.5
2270.34	625
2268.74	644
2267.13	633.5
2265.52	622
2263.92	625
2262.31	612.5
2260.7	609.5
2259.1	619.5
2257.49	611
2255.88	627
2254.27	618.5
2252.66	619
2251.05	617.5
2249.44	602.5
2247.83	613.5
2246.22	611
2244.61	613.5
2243	609.5
2241.39	609
2239.77	601.5
2238.16	602.5
2236.55	598.5
2234.93	608
2233.32	587.5
2231.7	593
2230.09	583
2228.47	596.5
2226.86	580
2225.24	587
2223.63	580
2222.01	596
2220.39	580
2218.77	583.5
2217.16	575.5
2215.54	567.5
2213.92	577.5
2212.3	566.5
2210.68	581.5
2209.06	581
2207.44	569.5
2205.82	562.5
2204.19	570
2202.57	559
2200.95	561
2199.33	563.5
2197.7	560
2196.08	559
2194.46	555
2192.83	568.5
2191.21	563
2189.58	547
2187.96	548
2186.33	553
2184.7	535.5
2183.08	543.5
2181.45	529.5
2179.82	536
2178.19	545
2176.57	539.5
2174.94	536
2173.31	520.5
2171.68	525.5
2170.05	522.5
2168.42	529
2166.79	530
2165.16	514
2163.52	520.5
2161.89	513.5
2160.26	519
2158.63	508
2156.99	507
2155.36	516.5
2153.73	516
2152.09	505
2150.46	504.5
2148.82	501.5
2147.18	496
2145.55	500.5
2143.91	490
2142.27	484.5
2140.64	479
2139	492
2137.36	490.5
2135.72	474
2134.08	468
2132.44	474
2130.8	474
2129.16	477.5
2127.52	470
2125.88	477.5
2124.24	475.5
2122.6	449.5
2120.95	460.5
2119.31	457.5
2117.67	444.5
2116.02	451.5
2114.38	446
2112.74	458
2111.09	446
2109.45	449
2107.8	452.5
2106.15	450.5
2104.51	439.5
2102.86	440
2101.21	438
2099.56	427.5
2097.92	444.5
2096.27	445.5
2094.62	437
2092.97	445
2091.32	435.5
2089.67	442
2088.02	438.5
2086.37	434
2084.72	425
2083.06	432.5
2081.41	425
2079.76	433
2078.1	425
2076.45	417.5
2074.8	418.5
2073.14	437.5
2071.49	419
2069.83	411
2068.18	427.5
2066.52	417
2064.86	411
2063.21	416.5
2061.55	425.5
2059.89	406.5
2058.23	414.5
2056.57	413
2054.92	409
2053.26	409
2051.6	399.5
2049.94	403.5
2048.27	396
2046.61	398
2044.95	399.5
2043.29	404
2041.63	391
2039.97	390.5
2038.3	394
2036.64	380.5
2034.97	392.5
2033.31	390
2031.64	389.5
2029.98	391.5
2028.31	374
2026.65	388.5
2024.98	378.5
2023.31	377.5
2021.65	379.5
2019.98	379
2018.31	364.5
2016.64	372.5
2014.97	376.5
2013.3	379.5
2011.63	382
2009.96	368
2008.29	364.5
2006.62	362.5
2004.95	363
2003.28	360.5
2001.6	354.5
1999.93	361
1998.26	374
1996.58	352.5
1994.91	357.5
1993.24	360.5
1991.56	361.5
1989.89	354
1988.21	355
1986.53	350.5
1984.86	347.5
1983.18	348.5
1981.5	342
1979.82	352
1978.15	340
1976.47	342.5
1974.79	342
1973.11	348
1971.43	334
1969.75	340.5
1968.07	337
1966.38	335
1964.7	343.5
1963.02	340
1961.34	334
1959.66	339
1957.97	330
1956.29	335
1954.6	330.5
1952.92	333.5
1951.23	327
1949.55	320
1947.86	322.5
1946.18	333.5
1944.49	319
1942.8	324.5
1941.11	318.5
1939.43	318.5
1937.74	318.5
1936.05	327.5
1934.36	323
1932.67	310
1930.98	311
1929.29	311
1927.6	315
1925.91	305.5
1924.21	309
1922.52	307
1920.83	304
1919.14	303.5
1917.44	307.5
1915.75	312
1914.05	305
1912.36	300
1910.66	298
1908.97	296.5
1907.27	291.5
1905.58	295.5
1903.88	300
1902.18	298
1900.48	284
1898.79	286.5
1897.09	278.5
1895.39	284.5
1893.69	288.5
1891.99	274.5
1890.29	291
1888.59	286
1886.89	277
1885.18	283
1883.48	280
1881.78	286.5
1880.08	279
1878.37	278
1876.67	279.5
1874.96	273
1873.26	273
1871.55	270.5
1869.85	264.5
1868.14	270
1866.44	262
1864.73	258
1863.02	273
1861.32	260.5
1859.61	268
1857.9	258.5
1856.19	247.5
1854.48	250.5
1852.77	251
1851.06	269
1849.35	252.5
1847.64	252
1845.93	256.5
1844.21	260.5
1842.5	254.5
1840.79	244.5
1839.08	257
1837.36	248
1835.65	246
1833.93	239
1832.22	244
1830.5	242
1828.79	238.5
1827.07	251
1825.36	250
1823.64	236.5
1821.92	239.5
1820.2	240
1818.48	245
1816.77	237
1815.05	232.5
1813.33	241
1811.61	256.5
1809.89	240
1808.16	242.5
1806.44	234.5
1804.72	226.5
1803	228.5
1801.28	240.5
1799.55	230
1797.83	234.5
1796.11	227
1794.38	220
1792.66	228.5
1790.93	213.5
1789.21	232.5
1787.48	216.5
1785.75	223.5
1784.03	228.5
1782.3	233
1780.57	232.5
1778.84	218
1777.11	217
1775.38	227
1773.66	225
1771.93	221.5
1770.19	222.5
1768.46	234
1766.73	224.5
1765	227
1763.27	233
1761.54	247
1759.8	245
1758.07	257
1756.34	254
1754.6	269.5
1752.87	272
1751.13	271
1749.4	284
1747.66	279.5
1745.92	286
1744.19	277.5
1742.45	273
1740.71	276.5
1738.97	255.5
1737.23	252
1735.49	234
1733.75	244
1732.01	237.5
1730.27	225.5
1728.53	223.5
1726.79	227
1725.05	223
1723.31	218.5
1721.57	208
1719.82	220.5
1718.08	212.5
1716.34	221
1714.59	205
1712.85	201
1711.1	208.5
1709.36	202
1707.61	203
1705.86	205
1704.12	202
1702.37	207
1700.62	203.5
1698.87	202.5
1697.12	208.5
1695.37	194.5
1693.62	201
1691.87	197
1690.12	198
1688.37	200
1686.62	211.5
1684.87	210.5
1683.12	209
1681.36	207.5
1679.61	216.5
1677.86	215.5
1676.1	215
1674.35	222.5
1672.59	232.5
1670.84	252.5
1669.08	255.5
1667.33	274
1665.57	295.5
1663.81	328.5
1662.06	351
1660.3	383
1658.54	396
1656.78	404
1655.02	392
1653.26	360.5
1651.5	344
1649.74	315
1647.98	292.5
1646.22	272.5
1644.46	253.5
1642.7	243
1640.93	228
1639.17	212.5
1637.41	210.5
1635.64	205.5
1633.88	198.5
1632.11	194.5
1630.35	188.5
1628.58	191
1626.81	190.5
1625.05	186.5
1623.28	193.5
1621.51	194
1619.75	176.5
1617.98	184.5
1616.21	183.5
1614.44	180.5
1612.67	169
1610.9	186
1609.13	187
1607.36	173.5
1605.58	179
1603.81	165
1602.04	177
1600.27	172
1598.49	174
1596.72	174.5
1594.95	167.5
1593.17	172
1591.4	172.5
1589.62	172
1587.84	177.5
1586.07	179.5
1584.29	177.5
1582.51	169
1580.74	186
1578.96	165
1577.18	165.5
1575.4	177
1573.62	170
1571.84	171
1570.06	178
1568.28	161.5
1566.5	168.5
1564.72	175
1562.93	179.5
1561.15	167.5
1559.37	170
1557.58	169.5
1555.8	174
1554.02	163.5
1552.23	165
1550.45	165
1548.66	163.5
1546.87	170.5
1545.09	168
1543.3	167
1541.51	172
1539.72	167.5
1537.94	160.5
1536.15	179
1534.36	174
1532.57	166
1530.78	165.5
1528.99	160
1527.2	165.5
1525.4	168
1523.61	169
1521.82	175.5
1520.03	176
1518.23	173
1516.44	172
1514.65	180
1512.85	173.5
1511.06	171
1509.26	177
1507.46	175
1505.67	183
1503.87	188.5
1502.07	187.5
1500.28	185
1498.48	200.5
1496.68	196.5
1494.88	192.5
1493.08	199.5
1491.28	202.5
1489.48	216
1487.68	209
1485.88	226.5
1484.08	240
1482.27	234
1480.47	249.5
1478.67	269
1476.86	279.5
1475.06	294
1473.25	316
1471.45	347.5
1469.64	373
1467.84	409
1466.03	442.5
1464.23	465.5
1462.42	486.5
1460.61	525.5
1458.8	546.5
1456.99	578
1455.18	596
1453.37	599.5
1451.56	627
1449.75	638.5
1447.94	667.5
1446.13	695.5
1444.32	724.5
1442.51	751
1440.7	735.5
1438.88	723.5
1437.07	683
1435.26	623
1433.44	553.5
1431.63	482.5
1429.81	417.5
1427.99	368.5
1426.18	339.5
1424.36	321
1422.54	305.5
1420.73	287
1418.91	275
1417.09	270
1415.27	242
1413.45	236.5
1411.63	231
1409.81	234.5
1407.99	223.5
1406.17	207
1404.35	198.5
1402.53	205
1400.7	205
1398.88	199
1397.06	190.5
1395.23	200
1393.41	193
1391.58	183.5
1389.76	180
1387.93	195
1386.11	186
1384.28	184.5
1382.45	188.5
1380.62	188
1378.8	198.5
1376.97	206
1375.14	208.5
1373.31	199.5
1371.48	210.5
1369.65	209.5
1367.82	213
1365.99	197.5
1364.16	209
1362.32	201.5
1360.49	211
1358.66	204
1356.82	206.5
1354.99	204
1353.16	197
1351.32	216.5
1349.48	213
1347.65	208
1345.81	209
1343.98	212
1342.14	219
1340.3	211
1338.46	217.5
1336.62	222
1334.79	239.5
1332.95	234.5
1331.11	260.5
1329.27	265.5
1327.42	287.5
1325.58	288
1323.74	315.5
1321.9	320
1320.06	343
1318.21	373.5
1316.37	392.5
1314.53	410.5
1312.68	442
1310.84	470
1308.99	513
1307.15	542.5
1305.3	559
1303.45	581
1301.61	574
1299.76	566
1297.91	530
1296.06	506
1294.21	463
1292.36	423.5
1290.51	396
1288.66	375
1286.81	363
1284.96	358
1283.11	350.5
1281.26	351.5
1279.4	338.5
1277.55	347
1275.7	356
1273.84	358.5
1271.99	369
1270.13	367
1268.28	368
1266.42	367.5
1264.56	355.5
1262.71	350
1260.85	340.5
1258.99	336.5
1257.13	314
1255.27	307.5
1253.41	298
1251.56	292.5
1249.7	270
1247.83	267.5
1245.97	253.5
1244.11	247
1242.25	243
1240.39	240
1238.52	234
1236.66	225
1234.8	224
1232.93	209.5
1231.07	200.5
1229.2	207
1227.34	212
1225.47	207
1223.6	199
1221.74	200
1219.87	201.5
1218	188
1216.13	192
1214.26	186.5
1212.39	179.5
1210.53	188.5
1208.65	185
1206.78	191.5
1204.91	194
1203.04	184.5
1201.17	190.5
1199.3	187.5
1197.42	180.5
1195.55	189
1193.68	181
1191.8	189.5
1189.93	177
1188.05	177
1186.17	183.5
1184.3	182
1182.42	189
1180.54	195
1178.67	187.5
1176.79	179.5
1174.91	187.5
1173.03	183.5
1171.15	191
1169.27	194
1167.39	181
1165.51	188.5
1163.63	193.5
1161.75	191.5
1159.86	177
1157.98	183
1156.1	191.5
1154.21	197.5
1152.33	201
1150.44	199
1148.56	190
1146.67	205.5
1144.79	195
1142.9	207
1141.01	196
1139.12	210.5
1137.24	201
1135.35	233
1133.46	247
1131.57	263.5
1129.68	280.5
1127.79	289.5
1125.9	290
1124.01	287
1122.12	287
1120.22	288
1118.33	274.5
1116.44	286
1114.54	270.5
1112.65	272.5
1110.75	271.5
1108.86	274
1106.96	295
1105.07	290.5
1103.17	303.5
1101.27	320
1099.38	324
1097.48	352
1095.58	364
1093.68	383
1091.78	401
1089.88	417.5
1087.98	418.5
1086.08	438
1084.18	447
1082.28	454
1080.38	449
1078.47	444.5
1076.57	433
1074.67	433.5
1072.76	427.5
1070.86	416.5
1068.95	414
1067.05	437
1065.14	435
1063.24	441
1061.33	399
1059.42	383.5
1057.51	363.5
1055.6	336
1053.7	327
1051.79	320
1049.88	305
1047.97	301
1046.06	303
1044.14	302.5
1042.23	296
1040.32	289
1038.41	279
1036.5	294
1034.58	300
1032.67	294
1030.75	294.5
1028.84	279.5
1026.92	289.5
1025.01	279.5
1023.09	286.5
1021.17	272.5
1019.26	288
1017.34	289
1015.42	275
1013.5	270.5
1011.58	274.5
1009.66	271.5
1007.74	262
1005.82	266.5
1003.9	264.5
1001.98	268.5
1000.06	248.5
998.134	254
996.212	255.5
994.288	260
992.364	253
990.44	256
988.515	262.5
986.589	267.5
984.663	275
982.737	282
980.81	295.5
978.883	302
976.955	311.5
975.027	322
973.098	326
971.169	325.5
969.239	322.5
967.308	335.5
965.378	328
963.447	329
961.516	321.5
959.583	324
957.65	323
955.718	315
953.784	320.5
951.85	328
949.916	314
947.981	334.5
946.045	338.5
944.109	334.5
942.173	356.5
940.236	345
938.298	344
936.36	346.5
934.422	334
932.484	340
930.544	325.5
928.604	326.5
926.664	327
924.724	334
922.782	334
920.84	336
918.898	330
916.955	338.5
915.012	330
913.068	318.5
911.124	328.5
909.18	332
907.235	334
905.289	342
903.343	342.5
901.397	338.5
899.45	360
897.502	363.5
895.554	374.5
893.605	377.5
891.657	399.5
889.707	387
887.758	389.5
885.807	381.5
883.856	387
881.905	394
879.953	397.5
878.001	405.5
876.048	412
874.094	420.5
872.14	416
870.186	404.5
868.232	412.5
866.276	403
864.321	387.5
862.365	402
860.408	384.5
858.451	404.5
856.493	394
854.535	385
852.576	394.5
850.617	388.5
848.658	396
846.698	391.5
844.737	383.5
842.776	381
840.814	374.5
838.852	355.5
836.89	348
834.927	345
832.963	342.5
830.999	324.5
829.035	317.5
827.07	303
825.105	300
823.139	292
821.172	282
819.206	285.5
817.238	284.5
815.27	259
813.301	266
811.333	266.5
809.363	258.5
807.394	245.5
805.424	250
803.453	229
801.482	232
799.509	221
797.538	216
795.565	207
793.592	202.5
791.618	207.5
789.643	209.5
787.669	205.5
785.693	197.5
783.718	206.5
781.742	208.5
779.765	205.5
777.788	198
775.811	209
773.832	208
771.853	199.5
769.875	214.5
767.895	217.5
765.915	202
763.934	198.5
761.953	204
759.972	207.5
757.99	200
756.007	200
754.024	204.5
752.041	200
750.056	196.5
748.072	201.5
746.087	200.5
744.102	208
742.116	206.5
740.13	208.5
738.143	208.5
736.155	213
734.167	217.5
732.179	207.5
730.19	217
728.2	212.5
726.21	213
724.22	211
722.229	219
720.237	212
718.246	213
716.253	198.5
714.26	206.5
712.267	192.5
710.273	192
708.279	194.5
706.284	190.5
704.289	184
702.293	197.5
700.296	183.5
698.3	189
696.303	186
694.305	182.5
692.307	192
690.307	176
688.308	182
686.309	179.5
684.308	180
682.308	177
680.306	183
678.304	170
676.302	172
674.3	183
672.296	184
670.293	186
668.289	185.5
666.284	188.5
664.278	185.5
662.273	180
660.266	182.5
658.26	192
656.252	178
654.244	182.5
652.237	187
650.227	192.5
648.218	196.5
646.209	183
644.198	186.5
642.188	197
640.177	186.5
638.165	198
636.153	199.5
634.14	197.5
632.128	208.5
630.113	200
628.099	206
626.085	209
624.07	201.5
622.054	209
620.038	211
618.021	220.5
616.004	210
613.986	220.5
611.968	230.5
609.949	224.5
607.93	234
605.911	230
603.891	236.5
601.87	225.5
599.848	229
597.827	220
595.805	224
593.782	216.5
591.759	209.5
589.735	220
587.711	211.5
585.687	218.5
583.661	213
581.636	214
579.609	202.5
577.583	209
575.555	212.5
573.527	197.5
571.5	193
569.471	212
567.441	205
565.412	209
563.382	198
561.351	216.5
559.32	225.5
557.289	207.5
555.257	227.5
553.223	224.5
551.19	229
549.157	231.5
547.122	246
545.088	246
543.053	256
541.017	259
538.981	271.5
536.943	307
534.907	352.5
532.869	419
530.831	518
528.792	703
526.752	1025.5
524.713	1441.5
522.673	1766.5
520.632	1758.5
518.591	1458.5
516.549	1107.5
514.507	779
512.464	584.5
510.42	442
508.377	368
506.332	329
504.288	296.5
502.242	294
500.196	281.5
498.15	274
496.104	274
494.056	274.5
492.008	286.5
489.96	276.5
487.911	277.5
485.862	278
483.812	259
481.761	257.5
479.71	263.5
477.659	276
475.607	258.5
473.555	263
471.502	270
469.448	263.5
467.395	271
465.34	272
463.285	252
461.23	269
459.174	268
457.118	267
455.061	275
453.003	259.5
450.945	281
448.887	271
446.828	279.5
444.768	269.5
442.708	267
440.647	279
438.587	288
436.525	281.5
434.463	286.5
432.4	285.5
430.337	285.5
428.274	272.5
426.21	293
424.145	284.5
422.079	297
420.014	295.5
417.948	306
415.882	303
413.814	306
411.746	310.5
409.679	313.5
407.609	306
405.54	303.5
403.47	304.5
401.401	299.5
399.329	308.5
397.258	303.5
395.187	304
393.114	300.5
391.041	315.5
388.968	319.5
386.895	301.5
384.82	299.5
382.745	311
380.67	309
378.594	307
376.517	307.5
374.44	319.5
372.363	312
370.286	312
368.207	320.5
366.128	320.5
364.049	332.5
361.969	315.5
359.888	331.5
357.807	331.5
355.725	331.5
353.643	330
351.561	331.5
349.477	336
347.394	340
345.31	338
343.226	344
341.141	349
339.055	341
336.968	340
334.882	362
332.795	352.5
330.707	352.5
328.618	354
326.53	361.5
324.44	370.5
322.351	374.5
320.26	381.5
318.17	382.5
316.078	396
313.987	406.5
311.895	404
309.802	419
307.708	433.5
305.614	438.5
303.52	423
301.425	435.5
299.329	434
297.233	439.5
295.137	428.5
293.039	440
290.942	438
288.844	439.5
286.745	438.5
284.647	428
282.546	449
280.446	440
278.346	449.5
276.245	461
274.143	455
272.041	471.5
269.939	468
267.835	480.5
265.731	492
263.627	484.5
261.522	483.5
259.417	492
257.311	506.5
255.204	501.5
253.098	499.5
250.99	519
248.882	536
246.774	541
244.664	534
242.555	541
240.445	559
238.334	555
236.223	574
234.112	574
232	574
229.888	576.5
227.775	585
225.661	595.5
223.546	611
221.431	611.5
219.316	603
217.201	616
215.084	619.5
212.967	619.5
210.85	617
208.732	615
206.614	626
204.495	633
202.375	638
200.256	629.5
198.135	626
196.014	615.5
193.893	632
191.771	623.5
189.648	613.5
187.525	625.5
185.401	614
183.277	633.5
181.152	631
179.027	623.5
176.901	614.5
174.775	610
172.648	656.5
170.521	652
168.393	656.5
166.265	655.5
164.136	681
162.007	679
159.876	689
157.746	702
155.615	709.5
153.483	730
151.351	740
149.219	755
147.086	774.5
144.952	790
142.818	822.5
140.684	843
138.548	852.5
136.413	869
134.276	905.5
132.139	947
130.002	959
127.864	992
125.725	1034
123.587	1074
121.447	1100.5
119.307	1148.5
117.166	1174
115.026	1217.5
112.885	1243.5
110.743	1287
108.6	1323
106.456	1362
104.313	1365
102.169	1328.5
100.023	1287.5
97.8789	1210.5
95.7328	1094.5
93.5869	965.5
91.4392	804.5
89.2919	664
87.1447	529.5
84.9959	406
