3528.51	124
3527.23	121.5
3525.95	127.5
3524.67	132
3523.39	135.5
3522.1	141
3520.82	137
3519.54	114
3518.26	130
3516.97	133
3515.69	129.5
3514.4	132.5
3513.12	138
3511.84	135
3510.55	139
3509.26	138
3507.98	139
3506.69	136
3505.41	130
3504.12	138
3502.83	144.5
3501.54	144.5
3500.26	139
3498.97	155.5
3497.68	146
3496.39	157.5
3495.1	155.5
3493.81	152
3492.52	154
3491.23	163.5
3489.94	164
3488.65	157.5
3487.36	166
3486.07	170.5
3484.78	165.5
3483.49	178
3482.19	178
3480.9	177.5
3479.61	180
3478.31	180
3477.02	171
3475.73	184.5
3474.43	182
3473.14	187.5
3471.84	187
3470.54	188
3469.25	181
3467.95	190.5
3466.66	192
3465.36	197.5
3464.06	192
3462.76	194
3461.46	187
3460.17	198
3458.87	193.5
3457.57	203.5
3456.27	203.5
3454.97	207.5
3453.67	206
3452.37	210.5
3451.07	212
3449.77	205
3448.47	217
3447.16	216.5
3445.86	213
3444.56	220
3443.26	231.5
3441.95	225.5
3440.65	235
3439.35	240
3438.04	249
3436.74	252
3435.43	254.5
3434.13	260.5
3432.82	251.5
3431.52	271
3430.21	271
3428.9	267.5
3427.6	268
3426.29	285.5
3424.98	282.5
3423.67	290.5
3422.36	293
3421.06	301.5
3419.75	307
3418.44	299.5
3417.13	297
3415.82	302.5
3414.51	310.5
3413.2	316.5
3411.88	315
3410.57	327.5
3409.26	330
3407.95	313.5
3406.64	328.5
3405.32	340.5
3404.01	325.5
3402.7	344
3401.38	343.5
3400.07	333
3398.75	346
3397.44	349
3396.12	346
3394.81	348.5
3393.49	353
3392.18	363
3390.86	369.5
3389.54	361.5
3388.23	368.5
3386.91	361.5
3385.59	370
3384.27	353
3382.95	376.5
3381.63	388.5
3380.31	384
3378.99	394.5
3377.67	393.5
3376.35	403
3375.03	400
3373.71	407
3372.39	398
3371.07	398
3369.75	399
3368.42	421
3367.1	416
3365.78	415.5
3364.45	415
3363.13	432
3361.81	431
3360.48	434
3359.16	432
3357.83	444
3356.51	423.5
3355.18	444
3353.85	443
3352.53	435
3351.2	454.5
3349.87	442
3348.54	457.5
3347.22	459
3345.89	457.5
3344.56	460.5
3343.23	455
3341.9	469
3340.57	460
3339.24	446
3337.91	459.5
3336.58	455.5
3335.25	462
3333.92	464.5
3332.58	466.5
3331.25	473.5
3329.92	474.5
3328.59	476
3327.25	475.5
3325.92	486
3324.58	478.5
3323.25	474
3321.92	481.5
3320.58	490.5
3319.25	494
3317.91	493.5
3316.57	492.5
3315.24	490
3313.9	487.5
3312.56	490.5
3311.23	513
3309.89	511
3308.55	505
3307.21	512
3305.87	500
3304.53	521
3303.19	498.5
3301.85	513.5
3300.51	534.5
3299.17	540
3297.83	520
3296.49	535.5
3295.15	541
3293.81	513.5
3292.46	527
3291.12	534.5
3289.78	542.5
3288.43	538.5
3287.09	540
3285.75	546
3284.4	549
3283.06	551
3281.71	557
3280.37	571
3279.02	560.5
3277.67	560
3276.33	562.5
3274.98	571
3273.63	562.5
3272.28	565.5
3270.94	577
3269.59	597
3268.24	590.5
3266.89	592
3265.54	604.5
3264.19	609
3262.84	610.5
3261.49	623.5
3260.14	627
3258.79	637.5
3257.44	645
3256.08	670.5
3254.73	687
3253.38	689
3252.03	722
3250.67	726
3249.32	734.5
3247.96	765
3246.61	778.5
3245.26	783
3243.9	808
3242.54	838
3241.19	865
3239.83	896.5
3238.48	916
3237.12	948
3235.76	949.5
3234.41	982.5
3233.05	986
3231.69	1038
3230.33	1036
3228.97	1070.5
3227.61	1091
3226.25	1098
3224.89	1124.5
3223.53	1141
3222.17	1139.5
3220.81	1169.5
3219.45	1184.5
3218.09	1201
3216.72	1192
3215.36	1220
3214	1232
3212.63	1231
3211.27	1250.5
3209.91	1278
3208.54	1248
3207.18	1273
3205.81	1296
3204.45	1289
3203.08	1308
3201.71	1281.5
3200.35	1290.5
3198.98	1309.5
3197.61	1315.5
3196.25	1327
3194.88	1327
3193.51	1341.5
3192.14	1354.5
3190.77	1345.5
3189.4	1361.5
3188.03	1347.5
3186.66	1380.5
3185.29	1375
3183.92	1388
3182.55	1387
3181.18	1402
3179.81	1422
3178.44	1412.5
3177.06	1440.5
3175.69	1438.5
3174.32	1458.5
3172.94	1464
3171.57	1473.5
3170.2	1484.5
3168.82	1506
3167.45	1514
3166.07	1523.5
3164.69	1522
3163.32	1516.5
3161.94	1555.5
3160.56	1546
3159.19	1564
3157.81	1583.5
3156.43	1580.5
3155.05	1608.5
3153.67	1624.5
3152.3	1632
3150.92	1619
3149.54	1649
3148.16	1662
3146.78	1686
3145.4	1685.5
3144.01	1707
3142.63	1707
3141.25	1721
3139.87	1734.5
3138.49	1738
3137.1	1739.5
3135.72	1759
3134.34	1742
3132.95	1772
3131.57	1805
3130.18	1822.5
3128.8	1818.5
3127.41	1832
3126.03	1831.5
3124.64	1865
3123.25	1853
3121.87	1887
3120.48	1873
3119.09	1875
3117.7	1910
3116.32	1901
3114.93	1924
3113.54	1925
3112.15	1937
3110.76	1944
3109.37	1947.5
3107.98	1967
3106.59	1953
3105.2	1980.5
3103.8	2000
3102.41	2002
3101.02	2010.5
3099.63	2013
3098.23	2031
3096.84	2036
3095.45	2044.5
3094.05	2036
3092.66	2046
3091.26	2053.5
3089.87	2081.5
3088.47	2062
3087.08	2079
3085.68	2068
3084.28	2084
3082.89	2093.5
3081.49	2118
3080.09	2096.5
3078.69	2097.5
3077.3	2109
3075.9	2108
3074.5	2135
3073.1	2116
3071.7	2114
3070.3	2150.5
3068.9	2176
3067.5	2151
3066.09	2159.5
3064.69	2153
3063.29	2179
3061.89	2167.5
3060.48	2195
3059.08	2194
3057.68	2204.5
3056.27	2199
3054.87	2206
3053.46	2198
3052.06	2206
3050.65	2228
3049.25	2225
3047.84	2223.5
3046.44	2232.5
3045.03	2245
3043.62	2245
3042.21	2259.5
3040.81	2283.5
3039.4	2276.5
3037.99	2290.5
3036.58	2320.5
3035.17	2332
3033.76	2298
3032.35	2305
3030.94	2309.5
3029.53	2319
3028.12	2330
3026.71	2313.5
3025.29	2320.5
3023.88	2344.5
3022.47	2367
3021.06	2347
3019.64	2336
3018.23	2361.5
3016.82	2366
3015.4	2364.5
3013.99	2378
3012.57	2359
3011.15	2373.5
3009.74	2380
3008.32	2371
3006.91	2392.5
3005.49	2424.5
3004.07	2432.5
3002.65	2399.5
3001.24	2446.5
2999.82	2433
2998.4	2414.5
2996.98	2446
2995.56	2451
2994.14	2483
2992.72	2495
2991.3	2485
2989.88	2518
2988.46	2527.5
2987.03	2549
2985.61	2543.5
2984.19	2566
2982.77	2588.5
2981.34	2609.5
2979.92	2621
2978.49	2598.5
2977.07	2628
2975.65	2644
2974.22	2659.5
2972.79	2652.5
2971.37	2695
2969.94	2703
2968.52	2708.5
2967.09	2726
2965.66	2725.5
2964.23	2737
2962.81	2750
2961.38	2753
2959.95	2768
2958.52	2782.5
2957.09	2780
2955.66	2768
2954.23	2795.5
2952.8	2792.5
2951.37	2811
2949.94	2833.5
2948.5	2807.5
2947.07	2807
2945.64	2856
2944.21	2858.5
2942.77	2840
2941.34	2895.5
2939.91	2892.5
2938.47	2903
2937.04	2903
2935.6	2940
2934.17	2920
2932.73	2939
2931.29	2996.5
2929.86	3022.5
2928.42	2999.5
2926.98	3013.5
2925.55	3014
2924.11	2992
2922.67	3027
2921.23	3038.5
2919.79	3027
2918.35	3055
2916.91	3066.5
2915.47	3067
2914.03	3082.5
2912.59	3096.5
2911.15	3084.5
2909.71	3104.5
2908.26	3105.5
2906.82	3072
2905.38	3117
2903.94	3110
2902.49	3147
2901.05	3157.5
2899.6	3148.5
2898.16	3127
2896.71	3161
2895.27	3163
2893.82	3156
2892.38	3162
2890.93	3181
2889.48	3160.5
2888.03	3179
2886.59	3172.5
2885.14	3170
2883.69	3180
2882.24	3196.5
2880.79	3184
2879.34	3213
2877.89	3196
2876.44	3201.5
2874.99	3221.5
2873.54	3199.5
2872.09	3195
2870.64	3191
2869.18	3207.5
2867.73	3215
2866.28	3168
2864.83	3203.5
2863.37	3230
2861.92	3218.5
2860.46	3198.5
2859.01	3205.5
2857.55	3256
2856.1	3210.5
2854.64	3227.5
2853.19	3251.5
2851.73	3238
2850.27	3221
2848.81	3225.5
2847.36	3223.5
2845.9	3190
2844.44	3192
2842.98	3187.5
2841.52	3170.5
2840.06	3130.5
2838.6	3120.5
2837.14	3118.5
2835.68	3077
2834.22	3046
2832.76	3057.5
2831.3	3038.5
2829.83	3098
2828.37	3035.5
2826.91	3012.5
2825.44	3022
2823.98	3021
2822.52	3031
2821.05	3018
2819.59	2980
2818.12	2941
2816.66	2974
2815.19	2953
2813.72	2971
2812.26	2930
2810.79	2923
2809.32	2941
2807.85	2952.5
2806.38	2923
2804.92	2902
2803.45	2941
2801.98	2931
2800.51	2918
2799.04	2929
2797.57	2927
2796.1	2908
2794.62	2897.5
2793.15	2906
2791.68	2882
2790.21	2894
2788.73	2871
2787.26	2894.5
2785.79	2864.5
2784.31	2874
2782.84	2890.5
2781.36	2891.5
2779.89	2912.5
2778.41	2910
2776.94	2905.5
2775.46	2922
2773.99	2910
2772.51	2916
2771.03	2935
2769.55	2927
2768.07	2940
2766.6	2959
2765.12	2956
2763.64	2964
2762.16	2964.5
2760.68	2938
2759.2	2925
2757.72	2911
2756.24	2939
2754.75	2938.5
2753.27	2943
2751.79	2922.5
2750.31	2938.5
2748.82	2925
2747.34	2918.5
2745.86	2957
2744.37	2914.5
2742.89	2912.5
2741.4	2914
2739.92	2919
2738.43	2899.5
2736.94	2880
2735.46	2921
2733.97	2897.5
2732.48	2924.5
2731	2901
2729.51	2912
2728.02	2919
2726.53	2890
2725.04	2884.5
2723.55	2906
2722.06	2914.5
2720.57	2907
2719.08	2901.5
2717.59	2876
2716.1	2908.5
2714.61	2908
2713.11	2887
2711.62	2919
2710.13	2887
2708.64	2928
2707.14	2894
2705.65	2892.5
2704.15	2920
2702.66	2876
2701.16	2890.5
2699.67	2846.5
2698.17	2889.5
2696.67	2896
2695.18	2855
2693.68	2870.5
2692.18	2885
2690.69	2839.5
2689.19	2833
2687.69	2838
2686.19	2841
2684.69	2823
2683.19	2823
2681.69	2793
2680.19	2793.5
2678.69	2826
2677.19	2805.5
2675.68	2804.5
2674.18	2805
2672.68	2804
2671.18	2787.5
2669.67	2789.5
2668.17	2777
2666.66	2772
2665.16	2774.5
2663.66	2793
2662.15	2805.5
2660.64	2788.5
2659.14	2761
2657.63	2756.5
2656.13	2763
2654.62	2759
2653.11	2728
2651.6	2778
2650.09	2755
2648.58	2743
2647.08	2723.5
2645.57	2726.5
2644.06	2722.5
2642.55	2718
2641.04	2703
2639.52	2692
2638.01	2693
2636.5	2669
2634.99	2671.5
2633.48	2674.5
2631.96	2649.5
2630.45	2650
2628.94	2650
2627.42	2658.5
2625.91	2641.5
2624.39	2617
2622.88	2635
2621.36	2616.5
2619.85	2627.5
2618.33	2633.5
2616.81	2639
2615.3	2652.5
2613.78	2617.5
2612.26	2649
2610.74	2640
2609.22	2630
2607.7	2598.5
2606.18	2585
2604.66	2577.5
2603.14	2586
2601.62	2579
2600.1	2553
2598.58	2565
2597.06	2548
2595.54	2530
2594.01	2531
2592.49	2531.5
2590.97	2519
2589.44	2528.5
2587.92	2499.5
2586.39	2503.5
2584.87	2491
2583.34	2504
2581.82	2498.5
2580.29	2492
2578.76	2494
2577.24	2493.5
2575.71	2501.5
2574.18	2487
2572.65	2463
2571.13	2486
2569.6	2473
2568.07	2466.5
2566.54	2448.5
2565.01	2480.5
2563.48	2442.5
2561.95	2466.5
2560.42	2462
2558.88	2459.5
2557.35	2456
2555.82	2413.5
2554.29	2438
2552.75	2415.5
2551.22	2431.5
2549.69	2390
2548.15	2422.5
2546.62	2374.5
2545.08	2416.5
2543.55	2374.5
2542.01	2371.5
2540.47	2358.5
2538.94	2384.5
2537.4	2356.5
2535.86	2343.5
2534.33	2350
2532.79	2336.5
2531.25	2324
2529.71	2324.5
2528.17	2326.5
2526.63	2317.5
2525.09	2295
2523.55	2336.5
2522.01	2296
2520.47	2293
2518.92	2294.5
2517.38	2258.5
2515.84	2259.5
2514.3	2239
2512.75	2229.5
2511.21	2252.5
2509.67	2233
2508.12	2248
2506.58	2252
2505.03	2223.5
2503.49	2222.5
2501.94	2210.5
2500.39	2206.5
2498.85	2217.5
2497.3	2175
2495.75	2173.5
2494.2	2197.5
2492.65	2160.5
2491.11	2168
2489.56	2162
2488.01	2134.5
2486.46	2169.5
2484.91	2151
2483.36	2147.5
2481.8	2117
2480.25	2125
2478.7	2108
2477.15	2117.5
2475.6	2119
2474.04	2093
2472.49	2064
2470.93	2050.5
2469.38	2066.5
2467.83	2032.5
2466.27	2074
2464.71	2036.5
2463.16	2034
2461.6	2029
2460.05	2001
2458.49	2016
2456.93	2020.5
2455.37	1984.5
2453.81	1983
2452.26	1984.5
2450.7	1972
2449.14	1943.5
2447.58	1953
2446.02	1948.5
2444.46	1926.5
2442.9	1937.5
2441.33	1932
2439.77	1933
2438.21	1917
2436.65	1920.5
2435.08	1917
2433.52	1917
2431.96	1872
2430.39	1914.5
2428.83	1888.5
2427.26	1878.5
2425.7	1866
2424.13	1888
2422.56	1870.5
2421	1864.5
2419.43	1856
2417.86	1864
2416.3	1846
2414.73	1837
2413.16	1830
2411.59	1840.5
2410.02	1831
2408.45	1824
2406.88	1824.5
2405.31	1812.5
2403.74	1822.5
2402.17	1815
2400.6	1818
2399.02	1811.5
2397.45	1810.5
2395.88	1790
2394.3	1788.5
2392.73	1800.5
2391.16	1750
2389.58	1774.5
2388.01	1755.5
2386.43	1759.5
2384.86	1769
2383.28	1761
2381.7	1755
2380.13	1745
2378.55	1748.5
2376.97	1751
2375.39	1744.5
2373.81	1752
2372.23	1748.5
2370.65	1732
2369.07	1722
2367.49	1715.5
2365.91	1710.5
2364.33	1711
2362.75	1730.5
2361.17	1728
2359.59	1702
2358.01	1716.5
2356.42	1691
2354.84	1708
2353.25	1697.5
2351.67	1677.5
2350.09	1701.5
2348.5	1689
2346.92	1696
2345.33	1690
2343.74	1667.5
2342.16	1675
2340.57	1667
2338.98	1675
2337.39	1673.5
2335.81	1652
2334.22	1661
2332.63	1651.5
2331.04	1640
2329.45	1630
2327.86	1663
2326.27	1638.5
2324.68	1632.5
2323.09	1608
2321.49	1603.5
2319.9	1596
2318.31	1612
2316.72	1614.5
2315.12	1605.5
2313.53	1590.5
2311.93	1593
2310.34	1585.5
2308.74	1572.5
2307.15	1567
2305.55	1549.5
2303.96	1567
2302.36	1512.5
2300.76	1543.5
2299.17	1532
2297.57	1519
2295.97	1520
2294.37	1530
2292.77	1516
2291.17	1511
2289.57	1527.5
2287.97	1525.5
2286.37	1507
2284.77	1513.5
2283.17	1507
2281.57	1482
2279.96	1490.5
2278.36	1487
2276.76	1489
2275.15	1471
2273.55	1467
2271.95	1462.5
2270.34	1449
2268.74	1447.5
2267.13	1459.5
2265.52	1435.5
2263.92	1443
2262.31	1422.5
2260.7	1408
2259.1	1421.5
2257.49	1407
2255.88	1416.5
2254.27	1403
2252.66	1407.5
2251.05	1388.5
2249.44	1410.5
2247.83	1380
2246.22	1408.5
2244.61	1420
2243	1380
2241.39	1377.5
2239.77	1370
2238.16	1366
2236.55	1380
2234.93	1359.5
2233.32	1354.5
2231.7	1365
2230.09	1346
2228.47	1336
2226.86	1335
2225.24	1344
2223.63	1320.5
2222.01	1300.5
2220.39	1326.5
2218.77	1308.5
2217.16	1309.5
2215.54	1298.5
2213.92	1305
2212.3	1302.5
2210.68	1295.5
2209.06	1258.5
2207.44	1264.5
2205.82	1277
2204.19	1267
2202.57	1256
2200.95	1268.5
2199.33	1256.5
2197.7	1256
2196.08	1257.5
2194.46	1258.5
2192.83	1264
2191.21	1230
2189.58	1244.5
2187.96	1246.5
2186.33	1227.5
2184.7	1228
2183.08	1231
2181.45	1218
2179.82	1229.5
2178.19	1212
2176.57	1200.5
2174.94	1200
2173.31	1188.5
2171.68	1203.5
2170.05	1197.5
2168.42	1185.5
2166.79	1184
2165.16	1187.5
2163.52	1171.5
2161.89	1164
2160.26	1140.5
2158.63	1153
2156.99	1144.5
2155.36	1141.5
2153.73	1146.5
2152.09	1140.5
2150.46	1141
2148.82	1119.5
2147.18	1115
2145.55	1134.5
2143.91	1141.5
2142.27	1131.5
2140.64	1117.5
2139	1105.5
2137.36	1117
2135.72	1113.5
2134.08	1082.5
2132.44	1078.5
2130.8	1078
2129.16	1071
2127.52	1062.5
2125.88	1051.5
2124.24	1053.5
2122.6	1056.5
2120.95	1056
2119.31	1046
2117.67	1022
2116.02	1044.5
2114.38	1005
2112.74	1016
2111.09	1021
2109.45	1000
2107.8	1001.5
2106.15	1011.5
2104.51	1016.5
2102.86	1000
2101.21	1008
2099.56	979
2097.92	991
2096.27	984
2094.62	977
2092.97	992.5
2091.32	1001.5
2089.67	967
2088.02	957
2086.37	991.5
2084.72	975.5
2083.06	971.5
2081.41	972.5
2079.76	965
2078.1	976.5
2076.45	963
2074.8	963
2073.14	953
2071.49	930
2069.83	952.5
2068.18	945.5
2066.52	947
2064.86	943.5
2063.21	952.5
2061.55	935
2059.89	946
2058.23	926.5
2056.57	927
2054.92	919
2053.26	917
2051.6	919.5
2049.94	921
2048.27	913.5
2046.61	915
2044.95	909
2043.29	910
2041.63	908
2039.97	898.5
2038.3	887.5
2036.64	865
2034.97	866
2033.31	875.5
2031.64	865
2029.98	868.5
2028.31	861
2026.65	869
2024.98	857
2023.31	841.5
2021.65	847
2019.98	840
2018.31	831
2016.64	831
2014.97	815.5
2013.3	833.5
2011.63	812.5
2009.96	821.5
2008.29	836
2006.62	824.5
2004.95	807
2003.28	805
2001.6	812
1999.93	804
1998.26	796
1996.58	803
1994.91	792
1993.24	791.5
1991.56	781.5
1989.89	780
1988.21	787.5
1986.53	806.5
1984.86	771.5
1983.18	769.5
1981.5	777.5
1979.82	757
1978.15	765
1976.47	744
1974.79	754
1973.11	756
1971.43	737.5
1969.75	740.5
1968.07	745
1966.38	748.5
1964.7	747.5
1963.02	744
1961.34	724
1959.66	734
1957.97	734
1956.29	718.5
1954.6	722
1952.92	723.5
1951.23	719
1949.55	731
1947.86	708.5
1946.18	717.5
1944.49	707.5
1942.8	694
1941.11	705
1939.43	689.5
1937.74	684
1936.05	677.5
1934.36	675.5
1932.67	687
1930.98	680.5
1929.29	684.5
1927.6	683.5
1925.91	675.5
1924.21	681
1922.52	667.5
1920.83	667.5
1919.14	656.5
1917.44	639.5
1915.75	639.5
1914.05	652.5
1912.36	651
1910.66	644.5
1908.97	658.5
1907.27	641.5
1905.58	634
1903.88	634
1902.18	616
1900.48	620
1898.79	620
1897.09	616.5
1895.39	612
1893.69	615.5
1891.99	618
1890.29	613.5
1888.59	606
1886.89	589.5
1885.18	604.5
1883.48	597
1881.78	576
1880.08	583
1878.37	574
1876.67	579
1874.96	571
1873.26	569.5
1871.55	563
1869.85	577
1868.14	569.5
1866.44	564.5
1864.73	571.5
1863.02	563
1861.32	549
1859.61	551.5
1857.9	551.5
1856.19	546.5
1854.48	556
1852.77	552.5
1851.06	543.5
1849.35	544
1847.64	538
1845.93	538.5
1844.21	533.5
1842.5	539.5
1840.79	519.5
1839.08	533.5
1837.36	524
1835.65	512
1833.93	519
1832.22	517
1830.5	516.5
1828.79	514
1827.07	507
1825.36	506.5
1823.64	503
1821.92	497
1820.2	491.5
1818.48	496
1816.77	494
1815.05	490.5
1813.33	491
1811.61	495
1809.89	508.5
1808.16	497.5
1806.44	484.5
1804.72	489.5
1803	472
1801.28	465.5
1799.55	478
1797.83	482
1796.11	471.5
1794.38	479.5
1792.66	473
1790.93	479.5
1789.21	470.5
1787.48	458.5
1785.75	463
1784.03	450
1782.3	430
1780.57	446.5
1778.84	439.5
1777.11	454.5
1775.38	457
1773.66	453
1771.93	467.5
1770.19	463
1768.46	460.5
1766.73	470
1765	461.5
1763.27	454
1761.54	469
1759.8	474
1758.07	483.5
1756.34	504.5
1754.6	503
1752.87	511.5
1751.13	514
1749.4	504.5
1747.66	506
1745.92	506.5
1744.19	490
1742.45	492
1740.71	488.5
1738.97	478
1737.23	456.5
1735.49	464.5
1733.75	452
1732.01	445.5
1730.27	450.5
1728.53	432
1726.79	434
1725.05	416
1723.31	426
1721.57	412
1719.82	417
1718.08	412
1716.34	411.5
1714.59	407
1712.85	413.5
1711.1	388.5
1709.36	404.5
1707.61	409.5
1705.86	396.5
1704.12	400
1702.37	392.5
1700.62	384
1698.87	391.5
1697.12	389
1695.37	392
1693.62	383
1691.87	402.5
1690.12	376
1688.37	390.5
1686.62	378
1684.87	388.5
1683.12	374.5
1681.36	379
1679.61	387.5
1677.86	392
1676.1	410
1674.35	415
1672.59	410.5
1670.84	428
1669.08	443.5
1667.33	463
1665.57	490
1663.81	521.5
1662.06	555.5
1660.3	570.5
1658.54	597
1656.78	605
1655.02	581.5
1653.26	553
1651.5	531.5
1649.74	490.5
1647.98	464
1646.22	438.5
1644.46	416
1642.7	389
1640.93	387
1639.17	371.5
1637.41	370
1635.64	368
1633.88	357
1632.11	363.5
1630.35	358
1628.58	351.5
1626.81	361
1625.05	350.5
1623.28	334
1621.51	339.5
1619.75	324
1617.98	318.5
1616.21	326
1614.44	328
1612.67	326
1610.9	316.5
1609.13	335.5
1607.36	324.5
1605.58	336.5
1603.81	319.5
1602.04	315
1600.27	319
1598.49	308
1596.72	314
1594.95	317
1593.17	317
1591.4	308.5
1589.62	306
1587.84	321
1586.07	305
1584.29	305.5
1582.51	313.5
1580.74	308
1578.96	304
1577.18	306
1575.4	310.5
1573.62	311.5
1571.84	310
1570.06	304
1568.28	300.5
1566.5	299
1564.72	298
1562.93	286.5
1561.15	297
1559.37	298
1557.58	295
1555.8	290.5
1554.02	292
1552.23	290.5
1550.45	294
1548.66	291
1546.87	301
1545.09	295
1543.3	287.5
1541.51	292
1539.72	286.5
1537.94	278
1536.15	279
1534.36	293.5
1532.57	278
1530.78	289
1528.99	281
1527.2	281.5
1525.4	274
1523.61	282.5
1521.82	281
1520.03	275
1518.23	284.5
1516.44	275.5
1514.65	279.5
1512.85	284.5
1511.06	279
1509.26	292.5
1507.46	294.5
1505.67	297
1503.87	292.5
1502.07	282
1500.28	287.5
1498.48	302
1496.68	297
1494.88	305.5
1493.08	314.5
1491.28	321
1489.48	308.5
1487.68	313
1485.88	340
1484.08	336.5
1482.27	355.5
1480.47	362
1478.67	381.5
1476.86	399.5
1475.06	407
1473.25	450
1471.45	482
1469.64	513.5
1467.84	541.5
1466.03	580
1464.23	620
1462.42	648.5
1460.61	682.5
1458.8	698
1456.99	717
1455.18	747.5
1453.37	762.5
1451.56	805.5
1449.75	824.5
1447.94	867
1446.13	885.5
1444.32	918.5
1442.51	920.5
1440.7	933
1438.88	889.5
1437.07	844.5
1435.26	765
1433.44	699
1431.63	614.5
1429.81	540
1427.99	479.5
1426.18	457
1424.36	426.5
1422.54	408.5
1420.73	394
1418.91	378
1417.09	352.5
1415.27	328
1413.45	314.5
1411.63	302
1409.81	305
1407.99	303
1406.17	297
1404.35	292.5
1402.53	289
1400.7	280.5
1398.88	274
1397.06	279
1395.23	257
1393.41	262.5
1391.58	261
1389.76	264
1387.93	257.5
1386.11	261.5
1384.28	268.5
1382.45	267
1380.62	268.5
1378.8	282.5
1376.97	272
1375.14	276
1373.31	279.5
1371.48	271
1369.65	281.5
1367.82	289.5
1365.99	282.5
1364.16	280.5
1362.32	272
1360.49	285
1358.66	273
1356.82	266.5
1354.99	270.5
1353.16	273
1351.32	265
1349.48	281
1347.65	276
1345.81	282.5
1343.98	285
1342.14	284
1340.3	300
1338.46	289.5
1336.62	283
1334.79	288
1332.95	300
1331.11	325
1329.27	337
1327.42	357.5
1325.58	374.5
1323.74	380
1321.9	415.5
1320.06	446.5
1318.21	460
1316.37	478
1314.53	513
1312.68	541.5
1310.84	573
1308.99	620
1307.15	637
1305.3	672.5
1303.45	698
1301.61	706.5
1299.76	693
1297.91	647
1296.06	609.5
1294.21	550
1292.36	509
1290.51	480.5
1288.66	450
1286.81	444.5
1284.96	441
1283.11	434.5
1281.26	430
1279.4	429
1277.55	449.5
1275.7	442
1273.84	440
1271.99	445.5
1270.13	455.5
1268.28	440.5
1266.42	438.5
1264.56	434
1262.71	437
1260.85	421
1258.99	412
1257.13	400
1255.27	398
1253.41	363.5
1251.56	356.5
1249.7	328
1247.83	330
1245.97	306
1244.11	291
1242.25	295.5
1240.39	286
1238.52	286
1236.66	286
1234.8	274.5
1232.93	258
1231.07	259
1229.2	251
1227.34	244.5
1225.47	250.5
1223.6	252.5
1221.74	232
1219.87	237
1218	238
1216.13	231.5
1214.26	235
1212.39	229.5
1210.53	219
1208.65	227
1206.78	213.5
1204.91	221
1203.04	222.5
1201.17	222
1199.3	218
1197.42	223
1195.55	223.5
1193.68	229
1191.8	229.5
1189.93	233
1188.05	214
1186.17	216
1184.3	217.5
1182.42	223.5
1180.54	214.5
1178.67	221
1176.79	221
1174.91	226.5
1173.03	224
1171.15	211.5
1169.27	237
1167.39	229.5
1165.51	215
1163.63	226
1161.75	207
1159.86	225.5
1157.98	230.5
1156.1	220.5
1154.21	214
1152.33	227
1150.44	221
1148.56	238
1146.67	237.5
1144.79	235
1142.9	230
1141.01	238
1139.12	246.5
1137.24	253
1135.35	259
1133.46	295
1131.57	310
1129.68	330.5
1127.79	323.5
1125.9	333
1124.01	350
1122.12	333
1120.22	324
1118.33	334
1116.44	314
1114.54	301
1112.65	320.5
1110.75	313
1108.86	324
1106.96	321
1105.07	342
1103.17	360
1101.27	373.5
1099.38	399.5
1097.48	396.5
1095.58	423.5
1093.68	436
1091.78	451
1089.88	483.5
1087.98	494.5
1086.08	505.5
1084.18	507
1082.28	509
1080.38	520
1078.47	500
1076.57	492
1074.67	482
1072.76	472.5
1070.86	471
1068.95	485
1067.05	497
1065.14	505
1063.24	489
1061.33	462
1059.42	439
1057.51	397
1055.6	373.5
1053.7	359.5
1051.79	351
1049.88	337.5
1047.97	344
1046.06	341
1044.14	337
1042.23	333
1040.32	333.5
1038.41	332
1036.5	325
1034.58	321
1032.67	330
1030.75	306
1028.84	317
1026.92	322
1025.01	313.5
1023.09	322.5
1021.17	312
1019.26	323
1017.34	323
1015.42	302.5
1013.5	303.5
1011.58	301
1009.66	299.5
1007.74	284
1005.82	278
1003.9	283.5
1001.98	288
1000.06	288.5
998.134	269
996.212	290
994.288	291.5
992.364	293
990.44	290
988.515	300
986.589	303.5
984.663	321.5
982.737	318.5
980.81	336.5
978.883	348.5
976.955	361.5
975.027	369.5
973.098	365
971.169	372
969.239	368
967.308	366.5
965.378	352.5
963.447	348
961.516	338
959.583	346
957.65	361.5
955.718	361
953.784	372.5
951.85	351.5
949.916	379
947.981	370
946.045	370
944.109	369.5
942.173	372.5
940.236	376
938.298	384.5
936.36	369.5
934.422	383.5
932.484	373
930.544	365.5
928.604	361
926.664	348
924.724	356
922.782	359.5
920.84	356.5
918.898	364
916.955	339
915.012	349
913.068	371.5
911.124	348.5
909.18	359.5
907.235	357
905.289	368
903.343	374.5
901.397	376.5
899.45	367.5
897.502	384
895.554	402
893.605	430.5
891.657	434
889.707	429.5
887.758	439
885.807	427.5
883.856	430
881.905	433.5
879.953	429.5
878.001	432
876.048	451.5
874.094	452
872.14	444.5
870.186	440.5
868.232	449.5
866.276	420
864.321	432
862.365	442
860.408	427
858.451	419
856.493	404.5
854.535	410.5
852.576	408.5
850.617	415.5
848.658	411
846.698	420.5
844.737	408
842.776	421.5
840.814	401
838.852	397
836.89	375
834.927	370.5
832.963	348
830.999	348
829.035	324.5
827.07	308
825.105	312
823.139	312
821.172	301.5
819.206	295
817.238	291.5
815.27	282
813.301	278.5
811.333	261
809.363	253.5
807.394	240.5
805.424	240
803.453	233
801.482	215.5
799.509	228
797.538	223
795.565	221
793.592	205
791.618	209.5
789.643	204
787.669	207
785.693	194.5
783.718	203.5
781.742	201.5
779.765	194
777.788	207
775.811	203
773.832	211
771.853	206
769.875	210
767.895	199.5
765.915	196.5
763.934	190
761.953	194.5
759.972	189
757.99	191
756.007	201.5
754.024	201.5
752.041	195.5
750.056	201
748.072	207.5
746.087	195
744.102	190
742.116	207.5
740.13	199
738.143	199.5
736.155	196.5
734.167	205.5
732.179	213
730.19	207
728.2	215.5
726.21	216.5
724.22	204.5
722.229	209
720.237	202.5
718.246	189
716.253	207
714.26	181
712.267	181.5
710.273	174.5
708.279	183.5
706.284	184
704.289	168.5
702.293	177.5
700.296	176
698.3	173
696.303	163
694.305	157
692.307	163.5
690.307	165.5
688.308	172
686.309	162.5
684.308	168
682.308	161
680.306	169.5
678.304	162
676.302	177.5
674.3	169.5
672.296	165.5
670.293	160
668.289	165
666.284	158
664.278	163
662.273	172
660.266	168.5
658.26	170
656.252	172.5
654.244	187.5
652.237	173
650.227	171.5
648.218	169
646.209	179.5
644.198	178.5
642.188	179
640.177	176.5
638.165	182.5
636.153	188.5
634.14	189.5
632.128	188
630.113	186.5
628.099	189.5
626.085	191
624.07	189
622.054	188
620.038	189
618.021	200
616.004	211
613.986	205.5
611.968	214.5
609.949	222.5
607.93	221
605.911	204.5
603.891	222
601.87	214
599.848	210
597.827	207
595.805	208.5
593.782	210.5
591.759	211.5
589.735	212
587.711	208
585.687	206.5
583.661	203.5
581.636	188.5
579.609	186.5
577.583	193.5
575.555	181
573.527	176
571.5	190.5
569.471	187
567.441	205.5
565.412	192
563.382	194
561.351	186.5
559.32	189.5
557.289	194
555.257	199
553.223	208.5
551.19	215
549.157	224.5
547.122	214.5
545.088	234.5
543.053	249.5
541.017	258.5
538.981	284
536.943	306
534.907	370.5
532.869	437
530.831	575
528.792	814
526.752	1225.5
524.713	1798
522.673	2239.5
520.632	2209
518.591	1823
516.549	1301
514.507	901
512.464	623.5
510.42	468
508.377	371
506.332	314.5
504.288	302
502.242	277
500.196	279
498.15	268.5
496.104	262
494.056	268
492.008	269
489.96	253.5
487.911	251.5
485.862	247
483.812	238.5
481.761	244.5
479.71	242
477.659	230
475.607	242
473.555	246.5
471.502	250.5
469.448	240
467.395	247
465.34	239.5
463.285	248
461.23	238.5
459.174	249.5
457.118	250.5
455.061	250.5
453.003	254
450.945	245.5
448.887	261.5
446.828	259
444.768	263.5
442.708	257
440.647	256
438.587	261.5
436.525	265
434.463	254
432.4	274.5
430.337	275
428.274	285
426.21	271.5
424.145	282.5
422.079	287
420.014	283
417.948	290.5
415.882	283
413.814	289.5
411.746	286
409.679	288
407.609	301
405.54	293
403.47	289.5
401.401	298
399.329	311.5
397.258	295.5
395.187	303.5
393.114	286
391.041	292
388.968	302.5
386.895	276
384.82	286
382.745	297
380.67	311
378.594	310
376.517	309
374.44	301.5
372.363	302
370.286	309.5
368.207	302
366.128	304.5
364.049	302
361.969	320
359.888	325
357.807	325.5
355.725	331
353.643	328
351.561	322
349.477	340
347.394	335
345.31	307.5
343.226	323
341.141	334
339.055	326
336.968	337.5
334.882	341
332.795	349.5
330.707	342
328.618	356
326.53	360
324.44	355.5
322.351	353.5
320.26	376
318.17	372.5
316.078	387
313.987	402
311.895	422
309.802	433
307.708	455
305.614	438.5
303.52	446.5
301.425	457.5
299.329	457
297.233	441
295.137	435.5
293.039	441.5
290.942	437
288.844	438
286.745	450.5
284.647	445
282.546	457
280.446	472.5
278.346	463
276.245	466
274.143	479
272.041	486.5
269.939	477
267.835	488
265.731	489
263.627	489
261.522	508
259.417	517
257.311	525.5
255.204	521.5
253.098	532
250.99	549
248.882	539
246.774	556.5
244.664	538
242.555	551
240.445	571
238.334	573.5
236.223	585
234.112	598
232	604.5
229.888	628
227.775	622
225.661	627
223.546	626
221.431	637.5
219.316	647
217.201	651.5
215.084	661.5
212.967	664
210.85	665
208.732	673.5
206.614	665.5
204.495	677.5
202.375	686
200.256	669
198.135	656
196.014	650.5
193.893	657
191.771	660
189.648	668
187.525	679
185.401	653.5
183.277	673
181.152	662
179.027	682.5
176.901	685.5
174.775	683
172.648	696
170.521	686
168.393	705
166.265	703.5
164.136	713
162.007	731
159.876	760.5
157.746	768
155.615	760.5
153.483	808.5
151.351	820.5
149.219	824
147.086	833
144.952	873
142.818	882
140.684	919
138.548	936
136.413	985
134.276	1005
132.139	1035.5
130.002	1068
127.864	1105.5
125.725	1129
123.587	1171.5
121.447	1215
119.307	1256.5
117.166	1308
115.026	1354.5
112.885	1399
110.743	1465.5
108.6	1501.5
106.456	1529.5
104.313	1551.5
102.169	1530.5
100.023	1471.5
97.8789	1373
95.7328	1257
93.5869	1095
91.4392	947.5
89.2919	781
87.1447	627
84.9959	489.5
