3528.51	169.5
3527.23	166.5
3525.95	189.5
3524.67	191
3523.39	197.5
3522.1	199
3520.82	204
3519.54	193.5
3518.26	218.5
3516.97	210.5
3515.69	198
3514.4	201.5
3513.12	193
3511.84	195
3510.55	204
3509.26	199
3507.98	206.5
3506.69	208.5
3505.41	222
3504.12	216
3502.83	225
3501.54	224.5
3500.26	217
3498.97	222
3497.68	219.5
3496.39	214.5
3495.1	232
3493.81	232
3492.52	251
3491.23	247
3489.94	249
3488.65	256.5
3487.36	235.5
3486.07	244
3484.78	256.5
3483.49	240.5
3482.19	237.5
3480.9	270.5
3479.61	266.5
3478.31	270.5
3477.02	282
3475.73	290.5
3474.43	290
3473.14	273.5
3471.84	284
3470.54	281
3469.25	296
3467.95	272
3466.66	290.5
3465.36	283.5
3464.06	286
3462.76	285
3461.46	300.5
3460.17	311.5
3458.87	306
3457.57	294
3456.27	277
3454.97	292.5
3453.67	300.5
3452.37	309.5
3451.07	309.5
3449.77	307
3448.47	325.5
3447.16	338
3445.86	342.5
3444.56	334
3443.26	348.5
3441.95	341
3440.65	362
3439.35	360.5
3438.04	341.5
3436.74	366
3435.43	372.5
3434.13	381.5
3432.82	397.5
3431.52	392
3430.21	423
3428.9	407
3427.6	427
3426.29	418
3424.98	417.5
3423.67	438.5
3422.36	430
3421.06	434.5
3419.75	461
3418.44	450
3417.13	460.5
3415.82	473
3414.51	458.5
3413.2	485.5
3411.88	460.5
3410.57	473.5
3409.26	471
3407.95	476
3406.64	492
3405.32	493.5
3404.01	493.5
3402.7	491
3401.38	513
3400.07	516.5
3398.75	527
3397.44	529
3396.12	499
3394.81	514.5
3393.49	527.5
3392.18	538
3390.86	521.5
3389.54	542.5
3388.23	558
3386.91	562
3385.59	573
3384.27	582.5
3382.95	561.5
3381.63	588.5
3380.31	558
3378.99	569
3377.67	604.5
3376.35	590.5
3375.03	587.5
3373.71	610.5
3372.39	634
3371.07	626
3369.75	627
3368.42	624.5
3367.1	640
3365.78	638
3364.45	646
3363.13	634
3361.81	635.5
3360.48	635.5
3359.16	663.5
3357.83	654.5
3356.51	675
3355.18	665.5
3353.85	670.5
3352.53	677.5
3351.2	661
3349.87	656.5
3348.54	681.5
3347.22	660.5
3345.89	668
3344.56	687.5
3343.23	685
3341.9	693.5
3340.57	690.5
3339.24	700.5
3337.91	702.5
3336.58	703
3335.25	680.5
3333.92	703
3332.58	694.5
3331.25	708.5
3329.92	700.5
3328.59	719.5
3327.25	739.5
3325.92	712
3324.58	727.5
3323.25	732.5
3321.92	729.5
3320.58	742
3319.25	732
3317.91	710
3316.57	740
3315.24	762.5
3313.9	755
3312.56	759
3311.23	766
3309.89	772.5
3308.55	788
3307.21	794
3305.87	773.5
3304.53	768.5
3303.19	770
3301.85	796
3300.51	786
3299.17	797
3297.83	811.5
3296.49	800.5
3295.15	812.5
3293.81	809.5
3292.46	813.5
3291.12	832
3289.78	809.5
3288.43	788.5
3287.09	821
3285.75	830
3284.4	824.5
3283.06	828
3281.71	824.5
3280.37	829
3279.02	875
3277.67	848
3276.33	836
3274.98	864.5
3273.63	862
3272.28	857.5
3270.94	876
3269.59	873
3268.24	894.5
3266.89	903.5
3265.54	915
3264.19	926
3262.84	944
3261.49	963.5
3260.14	951
3258.79	965.5
3257.44	983.5
3256.08	1011.5
3254.73	1033
3253.38	1046
3252.03	1067
3250.67	1120
3249.32	1133.5
3247.96	1153.5
3246.61	1170.5
3245.26	1217
3243.9	1241.5
3242.54	1273.5
3241.19	1302
3239.83	1368.5
3238.48	1405.5
3237.12	1416
3235.76	1450
3234.41	1513
3233.05	1493
3231.69	1534
3230.33	1600
3228.97	1613
3227.61	1632.5
3226.25	1656.5
3224.89	1674
3223.53	1709.5
3222.17	1730.5
3220.81	1772.5
3219.45	1795
3218.09	1786
3216.72	1814.5
3215.36	1858
3214	1843.5
3212.63	1899
3211.27	1895.5
3209.91	1864
3208.54	1908.5
3207.18	1917
3205.81	1926
3204.45	1959.5
3203.08	1936.5
3201.71	1994
3200.35	1985.5
3198.98	1999
3197.61	1995.5
3196.25	2005
3194.88	2039.5
3193.51	2031
3192.14	2040
3190.77	2033.5
3189.4	2068.5
3188.03	2082
3186.66	2084.5
3185.29	2096.5
3183.92	2094.5
3182.55	2081
3181.18	2134.5
3179.81	2133
3178.44	2166
3177.06	2160.5
3175.69	2180
3174.32	2175
3172.94	2205
3171.57	2255
3170.2	2251
3168.82	2225
3167.45	2301.5
3166.07	2284
3164.69	2317
3163.32	2318.5
3161.94	2320
3160.56	2347
3159.19	2375.5
3157.81	2384.5
3156.43	2409.5
3155.05	2437
3153.67	2495
3152.3	2485
3150.92	2450.5
3149.54	2526
3148.16	2524.5
3146.78	2519.5
3145.4	2559
3144.01	2559
3142.63	2590
3141.25	2600.5
3139.87	2631.5
3138.49	2657
3137.1	2654.5
3135.72	2668
3134.34	2671
3132.95	2711.5
3131.57	2714.5
3130.18	2738.5
3128.8	2731.5
3127.41	2784
3126.03	2792
3124.64	2832
3123.25	2828.5
3121.87	2820.5
3120.48	2888
3119.09	2858.5
3117.7	2903
3116.32	2889
3114.93	2894
3113.54	2940
3112.15	2964
3110.76	2951.5
3109.37	2974
3107.98	3008.5
3106.59	2992.5
3105.2	3003.5
3103.8	3006
3102.41	3052
3101.02	3047.5
3099.63	3052
3098.23	3084
3096.84	3080
3095.45	3088
3094.05	3106
3092.66	3127.5
3091.26	3136
3089.87	3123.5
3088.47	3153
3087.08	3130
3085.68	3147.5
3084.28	3170
3082.89	3161.5
3081.49	3224.5
3080.09	3171.5
3078.69	3235
3077.3	3213.5
3075.9	3160
3074.5	3223.5
3073.1	3232.5
3071.7	3264.5
3070.3	3249
3068.9	3270
3067.5	3257.5
3066.09	3252.5
3064.69	3272
3063.29	3284
3061.89	3310.5
3060.48	3338
3059.08	3343.5
3057.68	3358.5
3056.27	3348
3054.87	3342
3053.46	3377
3052.06	3374
3050.65	3347
3049.25	3445
3047.84	3399
3046.44	3451.5
3045.03	3454.5
3043.62	3459
3042.21	3429
3040.81	3499
3039.4	3482.5
3037.99	3503.5
3036.58	3466
3035.17	3513
3033.76	3496.5
3032.35	3516.5
3030.94	3556
3029.53	3522.5
3028.12	3548.5
3026.71	3527
3025.29	3531.5
3023.88	3580
3022.47	3569
3021.06	3550
3019.64	3560
3018.23	3574
3016.82	3613.5
3015.4	3603
3013.99	3581.5
3012.57	3584
3011.15	3641
3009.74	3663
3008.32	3674
3006.91	3661.5
3005.49	3662.5
3004.07	3656.5
3002.65	3697
3001.24	3657.5
2999.82	3750.5
2998.4	3730.5
2996.98	3708.5
2995.56	3779.5
2994.14	3811.5
2992.72	3784
2991.3	3797
2989.88	3811.5
2988.46	3841.5
2987.03	3861
2985.61	3878.5
2984.19	3923
2982.77	3928.5
2981.34	3981
2979.92	4013
2978.49	4006.5
2977.07	4080
2975.65	4014.5
2974.22	4069.5
2972.79	4135.5
2971.37	4105
2969.94	4133
2968.52	4142
2967.09	4190
2965.66	4194.5
2964.23	4196
2962.81	4181
2961.38	4200
2959.95	4225
2958.52	4270
2957.09	4274
2955.66	4277
2954.23	4287.5
2952.8	4321
2951.37	4291.5
2949.94	4332
2948.5	4293.5
2947.07	4309.5
2945.64	4368
2944.21	4368
2942.77	4409.5
2941.34	4426.5
2939.91	4403.5
2938.47	4433.5
2937.04	4449.5
2935.6	4498.5
2934.17	4564
2932.73	4537.5
2931.29	4564.5
2929.86	4591.5
2928.42	4615.5
2926.98	4647
2925.55	4647.5
2924.11	4646
2922.67	4651.5
2921.23	4648.5
2919.79	4671.5
2918.35	4692
2916.91	4694.5
2915.47	4691.5
2914.03	4779
2912.59	4687.5
2911.15	4700
2909.71	4807
2908.26	4751
2906.82	4771
2905.38	4769.5
2903.94	4722
2902.49	4799.5
2901.05	4832.5
2899.6	4852
2898.16	4846.5
2896.71	4856.5
2895.27	4865.5
2893.82	4917
2892.38	4835.5
2890.93	4857.5
2889.48	4872.5
2888.03	4892
2886.59	4833.5
2885.14	4856.5
2883.69	4871
2882.24	4920.5
2880.79	4931
2879.34	4955
2877.89	4898.5
2876.44	4927.5
2874.99	4946
2873.54	4940
2872.09	4899.5
2870.64	4902.5
2869.18	4897
2867.73	4924.5
2866.28	4896.5
2864.83	4927.5
2863.37	4971.5
2861.92	4988
2860.46	4917
2859.01	4952
2857.55	4977
2856.1	4953
2854.64	4937
2853.19	4935
2851.73	4946
2850.27	4937.5
2848.81	4932.5
2847.36	4950
2845.9	4939.5
2844.44	4933
2842.98	4893.5
2841.52	4917
2840.06	4815
2838.6	4816.5
2837.14	4774
2835.68	4768
2834.22	4754.5
2832.76	4751.5
2831.3	4703.5
2829.83	4732
2828.37	4680
2826.91	4670.5
2825.44	4620
2823.98	4608
2822.52	4585.5
2821.05	4595.5
2819.59	4558.5
2818.12	4542
2816.66	4588
2815.19	4587
2813.72	4563.5
2812.26	4523.5
2810.79	4536.5
2809.32	4520
2807.85	4532
2806.38	4496
2804.92	4503.5
2803.45	4506.5
2801.98	4464.5
2800.51	4491.5
2799.04	4503.5
2797.57	4453.5
2796.1	4468
2794.62	4494
2793.15	4453
2791.68	4408.5
2790.21	4451
2788.73	4444
2787.26	4468
2785.79	4450
2784.31	4382
2782.84	4424.5
2781.36	4444.5
2779.89	4472.5
2778.41	4462
2776.94	4440.5
2775.46	4470.5
2773.99	4430
2772.51	4465.5
2771.03	4486.5
2769.55	4463
2768.07	4532.5
2766.6	4463
2765.12	4497
2763.64	4563.5
2762.16	4488.5
2760.68	4492.5
2759.2	4479
2757.72	4454.5
2756.24	4496.5
2754.75	4455
2753.27	4391.5
2751.79	4472
2750.31	4465
2748.82	4494
2747.34	4476
2745.86	4475.5
2744.37	4444.5
2742.89	4456.5
2741.4	4467
2739.92	4467.5
2738.43	4455
2736.94	4451
2735.46	4425
2733.97	4431
2732.48	4456.5
2731	4445
2729.51	4457
2728.02	4439
2726.53	4469
2725.04	4467.5
2723.55	4412.5
2722.06	4410
2720.57	4468
2719.08	4420.5
2717.59	4407.5
2716.1	4473.5
2714.61	4467
2713.11	4409
2711.62	4401
2710.13	4417.5
2708.64	4412
2707.14	4386.5
2705.65	4396.5
2704.15	4428.5
2702.66	4376
2701.16	4371
2699.67	4391
2698.17	4377
2696.67	4397
2695.18	4372.5
2693.68	4369
2692.18	4326.5
2690.69	4343
2689.19	4316.5
2687.69	4302
2686.19	4284
2684.69	4325.5
2683.19	4309
2681.69	4326.5
2680.19	4273
2678.69	4278.5
2677.19	4289.5
2675.68	4268.5
2674.18	4290.5
2672.68	4263.5
2671.18	4263
2669.67	4260
2668.17	4282.5
2666.66	4211.5
2665.16	4240.5
2663.66	4197
2662.15	4253.5
2660.64	4214
2659.14	4203
2657.63	4195.5
2656.13	4197.5
2654.62	4232.5
2653.11	4184
2651.6	4169.5
2650.09	4169
2648.58	4166
2647.08	4172.5
2645.57	4149
2644.06	4151
2642.55	4129.5
2641.04	4145.5
2639.52	4122.5
2638.01	4104
2636.5	4049.5
2634.99	4055.5
2633.48	4054.5
2631.96	4061.5
2630.45	4060.5
2628.94	4049.5
2627.42	4008
2625.91	4015.5
2624.39	4048
2622.88	4042.5
2621.36	3995
2619.85	4020
2618.33	4028
2616.81	3976
2615.3	3980
2613.78	3994.5
2612.26	3973.5
2610.74	4014
2609.22	3967
2607.7	3968
2606.18	3970
2604.66	3956
2603.14	3943.5
2601.62	3884
2600.1	3850
2598.58	3872.5
2597.06	3847.5
2595.54	3868
2594.01	3866
2592.49	3816.5
2590.97	3890.5
2589.44	3817
2587.92	3882.5
2586.39	3887.5
2584.87	3856.5
2583.34	3829
2581.82	3842
2580.29	3812
2578.76	3821.5
2577.24	3749
2575.71	3777.5
2574.18	3758
2572.65	3795
2571.13	3796.5
2569.6	3783.5
2568.07	3763
2566.54	3788.5
2565.01	3799
2563.48	3737.5
2561.95	3743.5
2560.42	3744.5
2558.88	3680
2557.35	3751
2555.82	3736
2554.29	3704.5
2552.75	3696.5
2551.22	3678
2549.69	3678
2548.15	3661
2546.62	3674.5
2545.08	3599.5
2543.55	3588
2542.01	3623
2540.47	3614.5
2538.94	3622
2537.4	3590.5
2535.86	3614
2534.33	3566.5
2532.79	3579.5
2531.25	3568
2529.71	3579
2528.17	3510
2526.63	3530.5
2525.09	3513
2523.55	3501.5
2522.01	3487
2520.47	3492
2518.92	3478
2517.38	3430.5
2515.84	3474.5
2514.3	3473.5
2512.75	3456
2511.21	3425.5
2509.67	3437.5
2508.12	3413
2506.58	3388.5
2505.03	3426
2503.49	3363
2501.94	3368
2500.39	3381.5
2498.85	3386
2497.3	3320.5
2495.75	3356
2494.2	3326
2492.65	3321.5
2491.11	3301.5
2489.56	3275.5
2488.01	3254
2486.46	3272
2484.91	3230
2483.36	3236
2481.8	3233.5
2480.25	3207.5
2478.7	3216.5
2477.15	3212
2475.6	3194
2474.04	3145.5
2472.49	3181.5
2470.93	3143.5
2469.38	3178
2467.83	3127
2466.27	3119
2464.71	3044.5
2463.16	3064.5
2461.6	3076.5
2460.05	3042
2458.49	3016
2456.93	3005
2455.37	3044.5
2453.81	3033
2452.26	2998.5
2450.7	3002
2449.14	2950
2447.58	2936.5
2446.02	2988.5
2444.46	2937
2442.9	2971
2441.33	2897
2439.77	2913.5
2438.21	2875
2436.65	2920.5
2435.08	2915.5
2433.52	2904.5
2431.96	2871
2430.39	2854.5
2428.83	2869.5
2427.26	2829
2425.7	2848.5
2424.13	2840
2422.56	2831
2421	2816
2419.43	2828
2417.86	2804.5
2416.3	2846.5
2414.73	2814.5
2413.16	2773
2411.59	2814.5
2410.02	2798.5
2408.45	2804
2406.88	2771.5
2405.31	2786.5
2403.74	2793
2402.17	2781.5
2400.6	2776
2399.02	2781
2397.45	2745.5
2395.88	2770.5
2394.3	2767
2392.73	2719
2391.16	2748
2389.58	2747.5
2388.01	2741.5
2386.43	2737.5
2384.86	2736
2383.28	2751
2381.7	2702.5
2380.13	2729
2378.55	2718.5
2376.97	2734
2375.39	2719.5
2373.81	2697.5
2372.23	2674
2370.65	2701
2369.07	2665.5
2367.49	2639
2365.91	2651
2364.33	2667
2362.75	2690.5
2361.17	2621.5
2359.59	2616.5
2358.01	2589.5
2356.42	2598.5
2354.84	2621
2353.25	2621
2351.67	2572
2350.09	2582.5
2348.5	2600
2346.92	2578.5
2345.33	2579.5
2343.74	2577
2342.16	2607.5
2340.57	2572.5
2338.98	2572
2337.39	2588
2335.81	2524.5
2334.22	2541.5
2332.63	2511
2331.04	2528
2329.45	2496.5
2327.86	2521.5
2326.27	2504.5
2324.68	2555
2323.09	2521.5
2321.49	2483.5
2319.9	2496
2318.31	2502.5
2316.72	2446.5
2315.12	2461.5
2313.53	2433
2311.93	2444.5
2310.34	2416.5
2308.74	2407.5
2307.15	2412
2305.55	2397
2303.96	2426.5
2302.36	2381.5
2300.76	2381.5
2299.17	2340.5
2297.57	2342
2295.97	2354
2294.37	2326
2292.77	2346.5
2291.17	2320
2289.57	2316.5
2287.97	2352.5
2286.37	2293.5
2284.77	2301.5
2283.17	2289
2281.57	2307
2279.96	2248
2278.36	2291.5
2276.76	2293.5
2275.15	2272.5
2273.55	2232
2271.95	2290.5
2270.34	2232.5
2268.74	2237.5
2267.13	2241
2265.52	2241
2263.92	2190.5
2262.31	2176
2260.7	2183.5
2259.1	2215
2257.49	2179
2255.88	2190
2254.27	2183.5
2252.66	2172
2251.05	2179
2249.44	2175.5
2247.83	2180
2246.22	2143.5
2244.61	2146.5
2243	2174
2241.39	2117.5
2239.77	2142
2238.16	2102
2236.55	2153.5
2234.93	2102.5
2233.32	2098
2231.7	2088
2230.09	2036.5
2228.47	2077
2226.86	2053
2225.24	2062
2223.63	2044.5
2222.01	2015
2220.39	2027
2218.77	2024.5
2217.16	2023
2215.54	2000.5
2213.92	1986.5
2212.3	1996
2210.68	1992
2209.06	1966.5
2207.44	1977.5
2205.82	1988.5
2204.19	1946
2202.57	1947
2200.95	1955
2199.33	1943
2197.7	1946.5
2196.08	1939
2194.46	1937
2192.83	1933
2191.21	1918
2189.58	1914.5
2187.96	1917.5
2186.33	1900
2184.7	1899
2183.08	1874.5
2181.45	1851.5
2179.82	1867
2178.19	1838
2176.57	1869.5
2174.94	1866.5
2173.31	1857.5
2171.68	1810
2170.05	1812.5
2168.42	1846.5
2166.79	1817.5
2165.16	1795
2163.52	1789.5
2161.89	1790
2160.26	1792
2158.63	1799.5
2156.99	1783.5
2155.36	1780
2153.73	1781
2152.09	1761
2150.46	1760.5
2148.82	1748
2147.18	1740
2145.55	1726
2143.91	1720
2142.27	1716.5
2140.64	1715.5
2139	1707
2137.36	1708.5
2135.72	1681.5
2134.08	1683
2132.44	1643.5
2130.8	1664
2129.16	1640.5
2127.52	1642
2125.88	1600.5
2124.24	1602
2122.6	1576
2120.95	1611.5
2119.31	1596
2117.67	1557
2116.02	1593
2114.38	1559.5
2112.74	1565
2111.09	1545.5
2109.45	1518.5
2107.8	1539
2106.15	1546.5
2104.51	1534.5
2102.86	1540.5
2101.21	1520.5
2099.56	1516
2097.92	1501.5
2096.27	1518.5
2094.62	1498.5
2092.97	1486.5
2091.32	1504
2089.67	1467.5
2088.02	1497.5
2086.37	1479.5
2084.72	1497
2083.06	1515
2081.41	1497
2079.76	1504
2078.1	1480.5
2076.45	1465.5
2074.8	1463
2073.14	1444.5
2071.49	1464.5
2069.83	1447
2068.18	1431.5
2066.52	1447.5
2064.86	1428.5
2063.21	1458.5
2061.55	1435.5
2059.89	1437
2058.23	1425
2056.57	1422.5
2054.92	1371.5
2053.26	1406.5
2051.6	1385.5
2049.94	1399
2048.27	1408
2046.61	1359
2044.95	1387
2043.29	1364.5
2041.63	1377.5
2039.97	1360.5
2038.3	1335.5
2036.64	1335.5
2034.97	1360.5
2033.31	1336
2031.64	1352
2029.98	1322
2028.31	1324
2026.65	1307
2024.98	1326
2023.31	1303
2021.65	1313
2019.98	1265
2018.31	1273
2016.64	1274
2014.97	1263
2013.3	1276
2011.63	1282.5
2009.96	1257.5
2008.29	1277
2006.62	1281.5
2004.95	1261
2003.28	1278.5
2001.6	1269.5
1999.93	1228
1998.26	1221.5
1996.58	1218.5
1994.91	1212.5
1993.24	1208
1991.56	1243
1989.89	1227.5
1988.21	1224
1986.53	1225.5
1984.86	1215
1983.18	1208.5
1981.5	1200
1979.82	1195.5
1978.15	1180
1976.47	1175
1974.79	1175.5
1973.11	1178
1971.43	1157.5
1969.75	1172.5
1968.07	1166
1966.38	1121
1964.7	1153.5
1963.02	1121.5
1961.34	1124
1959.66	1130
1957.97	1100.5
1956.29	1108.5
1954.6	1098.5
1952.92	1116
1951.23	1119.5
1949.55	1121
1947.86	1098
1946.18	1088.5
1944.49	1106.5
1942.8	1105.5
1941.11	1077
1939.43	1061
1937.74	1043.5
1936.05	1054
1934.36	1060.5
1932.67	1069.5
1930.98	1052.5
1929.29	1068
1927.6	1032
1925.91	1040
1924.21	1018.5
1922.52	1022
1920.83	1017
1919.14	1020
1917.44	999
1915.75	989
1914.05	1032
1912.36	1000.5
1910.66	999
1908.97	1032
1907.27	1014
1905.58	1005
1903.88	984.5
1902.18	976
1900.48	966.5
1898.79	965.5
1897.09	982.5
1895.39	950.5
1893.69	964
1891.99	946.5
1890.29	971.5
1888.59	957.5
1886.89	933
1885.18	928
1883.48	928.5
1881.78	895.5
1880.08	896
1878.37	910
1876.67	906.5
1874.96	903.5
1873.26	905
1871.55	886
1869.85	899.5
1868.14	873
1866.44	890
1864.73	875.5
1863.02	838.5
1861.32	854.5
1859.61	851
1857.9	859.5
1856.19	853
1854.48	868.5
1852.77	854.5
1851.06	861
1849.35	872.5
1847.64	857.5
1845.93	846.5
1844.21	837
1842.5	823
1840.79	808
1839.08	818.5
1837.36	818
1835.65	834.5
1833.93	816.5
1832.22	810.5
1830.5	802.5
1828.79	822.5
1827.07	799
1825.36	831
1823.64	781
1821.92	789
1820.2	783.5
1818.48	783
1816.77	777.5
1815.05	778.5
1813.33	780
1811.61	786
1809.89	779
1808.16	771
1806.44	767.5
1804.72	770
1803	747.5
1801.28	736
1799.55	760.5
1797.83	745.5
1796.11	731.5
1794.38	739.5
1792.66	744
1790.93	728.5
1789.21	716
1787.48	734
1785.75	732
1784.03	711.5
1782.3	728.5
1780.57	699
1778.84	689
1777.11	696.5
1775.38	713.5
1773.66	718.5
1771.93	737
1770.19	706.5
1768.46	717
1766.73	723
1765	712.5
1763.27	721
1761.54	708
1759.8	739
1758.07	752
1756.34	771.5
1754.6	791
1752.87	790.5
1751.13	796
1749.4	832.5
1747.66	827
1745.92	797.5
1744.19	787.5
1742.45	780.5
1740.71	784
1738.97	763.5
1737.23	742
1735.49	728
1733.75	715.5
1732.01	731
1730.27	687
1728.53	701
1726.79	681
1725.05	663.5
1723.31	661.5
1721.57	642
1719.82	636
1718.08	648
1716.34	652.5
1714.59	647
1712.85	627
1711.1	653
1709.36	635.5
1707.61	626.5
1705.86	640
1704.12	610.5
1702.37	622
1700.62	605.5
1698.87	608
1697.12	619
1695.37	635
1693.62	607.5
1691.87	597.5
1690.12	620.5
1688.37	604.5
1686.62	607
1684.87	610.5
1683.12	594.5
1681.36	593
1679.61	587.5
1677.86	614.5
1676.1	618.5
1674.35	628
1672.59	680.5
1670.84	661.5
1669.08	720
1667.33	746
1665.57	773.5
1663.81	838.5
1662.06	890.5
1660.3	925
1658.54	984
1656.78	986.5
1655.02	978
1653.26	964
1651.5	916.5
1649.74	831
1647.98	776
1646.22	730
1644.46	690
1642.7	654
1640.93	613.5
1639.17	595
1637.41	594
1635.64	591.5
1633.88	584.5
1632.11	584.5
1630.35	582
1628.58	571.5
1626.81	563.5
1625.05	538
1623.28	546
1621.51	524.5
1619.75	526.5
1617.98	512
1616.21	521
1614.44	520
1612.67	518.5
1610.9	529.5
1609.13	533.5
1607.36	513.5
1605.58	491
1603.81	495
1602.04	492
1600.27	507
1598.49	506
1596.72	515
1594.95	497
1593.17	507.5
1591.4	515
1589.62	529
1587.84	503
1586.07	505
1584.29	502
1582.51	493
1580.74	477
1578.96	476
1577.18	484.5
1575.4	493.5
1573.62	495.5
1571.84	495
1570.06	496
1568.28	489.5
1566.5	475
1564.72	470.5
1562.93	477.5
1561.15	470.5
1559.37	451
1557.58	469.5
1555.8	466.5
1554.02	486
1552.23	473
1550.45	477.5
1548.66	474
1546.87	456.5
1545.09	448
1543.3	447.5
1541.51	459.5
1539.72	446
1537.94	448.5
1536.15	447.5
1534.36	448
1532.57	476.5
1530.78	448
1528.99	449
1527.2	457.5
1525.4	442
1523.61	476.5
1521.82	438.5
1520.03	447.5
1518.23	443.5
1516.44	462.5
1514.65	461.5
1512.85	485
1511.06	464
1509.26	478
1507.46	464.5
1505.67	468
1503.87	464.5
1502.07	483
1500.28	463
1498.48	475.5
1496.68	461
1494.88	472.5
1493.08	504.5
1491.28	516
1489.48	529.5
1487.68	534
1485.88	551.5
1484.08	558
1482.27	584.5
1480.47	590
1478.67	597
1476.86	638
1475.06	678.5
1473.25	718.5
1471.45	798.5
1469.64	840
1467.84	901
1466.03	980.5
1464.23	1028
1462.42	1073
1460.61	1146
1458.8	1190
1456.99	1223.5
1455.18	1254.5
1453.37	1298.5
1451.56	1343
1449.75	1411
1447.94	1450
1446.13	1503.5
1444.32	1529
1442.51	1596.5
1440.7	1605.5
1438.88	1543
1437.07	1470.5
1435.26	1369.5
1433.44	1207
1431.63	1099.5
1429.81	940.5
1427.99	862
1426.18	799.5
1424.36	750
1422.54	719.5
1420.73	645
1418.91	634
1417.09	593
1415.27	559.5
1413.45	538
1411.63	505
1409.81	505.5
1407.99	490
1406.17	490
1404.35	488
1402.53	480.5
1400.7	483
1398.88	459
1397.06	437
1395.23	417.5
1393.41	440
1391.58	420
1389.76	413
1387.93	435.5
1386.11	454.5
1384.28	409
1382.45	452.5
1380.62	435.5
1378.8	424.5
1376.97	461.5
1375.14	458.5
1373.31	457
1371.48	478
1369.65	480.5
1367.82	477
1365.99	457
1364.16	472
1362.32	479.5
1360.49	478.5
1358.66	471.5
1356.82	479.5
1354.99	450
1353.16	455
1351.32	447.5
1349.48	446
1347.65	468.5
1345.81	499.5
1343.98	482
1342.14	478
1340.3	482
1338.46	506
1336.62	480
1334.79	494
1332.95	516.5
1331.11	550
1329.27	561
1327.42	590.5
1325.58	615.5
1323.74	662.5
1321.9	694
1320.06	725
1318.21	743.5
1316.37	807.5
1314.53	853
1312.68	875
1310.84	969
1308.99	1038
1307.15	1086.5
1305.3	1154
1303.45	1219.5
1301.61	1195
1299.76	1203
1297.91	1143
1296.06	1080.5
1294.21	988
1292.36	897
1290.51	838
1288.66	784.5
1286.81	761
1284.96	752
1283.11	736
1281.26	735.5
1279.4	748.5
1277.55	732.5
1275.7	751.5
1273.84	737.5
1271.99	751
1270.13	748
1268.28	742
1266.42	761
1264.56	776.5
1262.71	730
1260.85	737.5
1258.99	727
1257.13	698.5
1255.27	672.5
1253.41	633
1251.56	598.5
1249.7	556.5
1247.83	561
1245.97	539.5
1244.11	527
1242.25	505.5
1240.39	509
1238.52	500
1236.66	480
1234.8	466
1232.93	441
1231.07	427
1229.2	424
1227.34	399
1225.47	396
1223.6	403.5
1221.74	395
1219.87	416.5
1218	420.5
1216.13	412
1214.26	405.5
1212.39	397.5
1210.53	388.5
1208.65	373
1206.78	382
1204.91	367
1203.04	376
1201.17	382
1199.3	380
1197.42	383
1195.55	386.5
1193.68	390.5
1191.8	397.5
1189.93	343
1188.05	366.5
1186.17	354
1184.3	366.5
1182.42	358.5
1180.54	376.5
1178.67	370.5
1176.79	373.5
1174.91	383.5
1173.03	404
1171.15	382.5
1169.27	387
1167.39	373
1165.51	373
1163.63	364
1161.75	365
1159.86	383
1157.98	377
1156.1	387.5
1154.21	401
1152.33	391
1150.44	414
1148.56	405
1146.67	398.5
1144.79	407
1142.9	386.5
1141.01	410.5
1139.12	419.5
1137.24	416.5
1135.35	437
1133.46	488.5
1131.57	516
1129.68	567.5
1127.79	577.5
1125.9	576.5
1124.01	603.5
1122.12	573.5
1120.22	558
1118.33	535
1116.44	545
1114.54	547.5
1112.65	541
1110.75	527.5
1108.86	551
1106.96	568
1105.07	591.5
1103.17	624.5
1101.27	629
1099.38	663
1097.48	700
1095.58	701
1093.68	762.5
1091.78	793
1089.88	823
1087.98	847.5
1086.08	897
1084.18	911.5
1082.28	895.5
1080.38	883.5
1078.47	875
1076.57	859.5
1074.67	824.5
1072.76	808.5
1070.86	817.5
1068.95	868
1067.05	849
1065.14	876.5
1063.24	873
1061.33	823.5
1059.42	758.5
1057.51	709.5
1055.6	651.5
1053.7	609
1051.79	604.5
1049.88	612.5
1047.97	595.5
1046.06	601
1044.14	594
1042.23	594
1040.32	599
1038.41	583
1036.5	569.5
1034.58	549.5
1032.67	569
1030.75	568
1028.84	579.5
1026.92	552
1025.01	562.5
1023.09	569.5
1021.17	551
1019.26	552.5
1017.34	543.5
1015.42	527.5
1013.5	522
1011.58	510.5
1009.66	498
1007.74	513.5
1005.82	484.5
1003.9	501
1001.98	512.5
1000.06	496.5
998.134	512.5
996.212	510
994.288	495
992.364	497.5
990.44	496.5
988.515	502.5
986.589	510.5
984.663	546
982.737	562
980.81	569
978.883	615
976.955	627.5
975.027	656.5
973.098	664.5
971.169	652
969.239	643.5
967.308	624
965.378	623.5
963.447	610
961.516	604
959.583	625
957.65	637
955.718	647
953.784	633
951.85	662.5
949.916	633.5
947.981	638
946.045	654
944.109	672
942.173	691
940.236	690
938.298	642.5
936.36	651.5
934.422	671.5
932.484	652.5
930.544	641
928.604	658.5
926.664	626
924.724	604.5
922.782	610.5
920.84	628
918.898	600.5
916.955	641.5
915.012	639
913.068	617
911.124	663
909.18	634
907.235	651
905.289	640
903.343	636.5
901.397	646
899.45	663
897.502	665
895.554	693.5
893.605	714
891.657	765.5
889.707	767.5
887.758	767
885.807	759.5
883.856	748
881.905	739.5
879.953	771.5
878.001	757
876.048	776.5
874.094	774
872.14	787.5
870.186	776
868.232	793
866.276	815
864.321	766.5
862.365	753.5
860.408	728
858.451	766
856.493	718.5
854.535	727.5
852.576	729.5
850.617	722.5
848.658	735
846.698	727.5
844.737	739
842.776	728.5
840.814	729.5
838.852	708
836.89	668
834.927	660
832.963	629.5
830.999	603
829.035	564.5
827.07	566
825.105	538
823.139	559
821.172	549
819.206	524.5
817.238	497.5
815.27	508
813.301	478.5
811.333	458
809.363	455
807.394	441
805.424	420.5
803.453	407.5
801.482	407
799.509	401.5
797.538	395
795.565	396
793.592	383
791.618	370.5
789.643	357.5
787.669	356
785.693	343
783.718	349
781.742	352
779.765	351.5
777.788	366.5
775.811	348
773.832	379.5
771.853	373
769.875	348.5
767.895	350
765.915	357
763.934	347
761.953	343
759.972	341
757.99	341.5
756.007	347
754.024	358
752.041	362
750.056	339
748.072	333.5
746.087	350.5
744.102	369.5
742.116	349
740.13	337.5
738.143	358
736.155	350
734.167	373.5
732.179	367.5
730.19	391.5
728.2	378.5
726.21	376.5
724.22	383
722.229	367.5
720.237	355.5
718.246	350.5
716.253	345.5
714.26	336
712.267	344
710.273	331
708.279	335.5
706.284	325
704.289	319
702.293	305.5
700.296	303.5
698.3	295
696.303	284
694.305	285
692.307	304.5
690.307	307
688.308	312
686.309	293.5
684.308	311
682.308	306
680.306	310.5
678.304	285.5
676.302	298
674.3	282.5
672.296	300
670.293	296
668.289	295
666.284	300
664.278	316.5
662.273	319.5
660.266	333.5
658.26	306
656.252	303
654.244	297
652.237	290.5
650.227	297
648.218	306.5
646.209	301.5
644.198	334.5
642.188	320.5
640.177	331.5
638.165	353
636.153	334
634.14	340.5
632.128	330.5
630.113	338
628.099	335
626.085	339
624.07	321.5
622.054	359
620.038	374
618.021	378.5
616.004	381.5
613.986	377.5
611.968	398.5
609.949	392
607.93	386.5
605.911	390
603.891	368.5
601.87	353
599.848	375
597.827	366.5
595.805	373
593.782	371.5
591.759	383.5
589.735	373.5
587.711	372.5
585.687	387.5
583.661	354.5
581.636	344
579.609	341
577.583	334.5
575.555	335
573.527	354
571.5	348.5
569.471	347
567.441	356
565.412	357
563.382	356
561.351	356
559.32	344.5
557.289	341.5
555.257	349
553.223	373.5
551.19	382
549.157	393.5
547.122	422
545.088	424
543.053	460.5
541.017	464
538.981	495
536.943	538.5
534.907	597.5
532.869	751.5
530.831	958.5
528.792	1346
526.752	2033.5
524.713	2956.5
522.673	3885
520.632	4022
518.591	3417.5
516.549	2556.5
514.507	1803.5
512.464	1223.5
510.42	895.5
508.377	721.5
506.332	605
504.288	542
502.242	529.5
500.196	501.5
498.15	497
496.104	494.5
494.056	483
492.008	472
489.96	479.5
487.911	455.5
485.862	437.5
483.812	462
481.761	457
479.71	442
477.659	449.5
475.607	464
473.555	454
471.502	442.5
469.448	427
467.395	434.5
465.34	418
463.285	436.5
461.23	421
459.174	445
457.118	446.5
455.061	470.5
453.003	480
450.945	457.5
448.887	476
446.828	465
444.768	458
442.708	471
440.647	455
438.587	459.5
436.525	477
434.463	481.5
432.4	496
430.337	508.5
428.274	509.5
426.21	493.5
424.145	502
422.079	503
420.014	499
417.948	493.5
415.882	520
413.814	498.5
411.746	501
409.679	536
407.609	546.5
405.54	538.5
403.47	551
401.401	529.5
399.329	533
397.258	526.5
395.187	507
393.114	527.5
391.041	514.5
388.968	506.5
386.895	534.5
384.82	549
382.745	554.5
380.67	554
378.594	534
376.517	545
374.44	548
372.363	567
370.286	561.5
368.207	554
366.128	517
364.049	562.5
361.969	578.5
359.888	572.5
357.807	606.5
355.725	586
353.643	583.5
351.561	577.5
349.477	580.5
347.394	577
345.31	565.5
343.226	565.5
341.141	580.5
339.055	589
336.968	604
334.882	635.5
332.795	635.5
330.707	617.5
328.618	630.5
326.53	636
324.44	631
322.351	653
320.26	666.5
318.17	674.5
316.078	678
313.987	701
311.895	745.5
309.802	781.5
307.708	772
305.614	802
303.52	798.5
301.425	778
299.329	787.5
297.233	780
295.137	786.5
293.039	786
290.942	776
288.844	783
286.745	796
284.647	822
282.546	804.5
280.446	819
278.346	813.5
276.245	807
274.143	825
272.041	829
269.939	822.5
267.835	880.5
265.731	867.5
263.627	881
261.522	923.5
259.417	909.5
257.311	915.5
255.204	927
253.098	911
250.99	926.5
248.882	954
246.774	938.5
244.664	967
242.555	975
240.445	1013.5
238.334	1027
236.223	1051
234.112	1057
232	1057
229.888	1059
227.775	1085
225.661	1075.5
223.546	1100.5
221.431	1109.5
219.316	1128
217.201	1162.5
215.084	1131
212.967	1128.5
210.85	1167.5
208.732	1150
206.614	1147
204.495	1160
202.375	1145.5
200.256	1136
198.135	1142
196.014	1141
193.893	1148.5
191.771	1150.5
189.648	1159
187.525	1154
185.401	1159
183.277	1149.5
181.152	1135
179.027	1126
176.901	1131.5
174.775	1152
172.648	1155.5
170.521	1189
168.393	1200.5
166.265	1222
164.136	1248
162.007	1263.5
159.876	1281
157.746	1307
155.615	1335
153.483	1332
151.351	1367
149.219	1388.5
147.086	1431
144.952	1484
142.818	1505
140.684	1522.5
138.548	1610
136.413	1661
134.276	1732.5
132.139	1715.5
130.002	1784
127.864	1806
125.725	1909
123.587	2000.5
121.447	2063.5
119.307	2148.5
117.166	2247
115.026	2346
112.885	2422
110.743	2457
108.6	2564
106.456	2614.5
104.313	2656.5
102.169	2604.5
100.023	2529
97.8789	2409.5
95.7328	2232
93.5869	1977.5
91.4392	1691.5
89.2919	1407.5
87.1447	1112
84.9959	858.5
