3528.51	223.5
3527.23	243
3525.95	250.5
3524.67	267
3523.39	269
3522.1	276
3520.82	295.5
3519.54	271.5
3518.26	290
3516.97	289.5
3515.69	278.5
3514.4	284
3513.12	270
3511.84	266
3510.55	277.5
3509.26	282
3507.98	285
3506.69	298.5
3505.41	285.5
3504.12	293
3502.83	300.5
3501.54	312
3500.26	304
3498.97	314
3497.68	312
3496.39	311.5
3495.1	313.5
3493.81	321.5
3492.52	324
3491.23	329
3489.94	342
3488.65	327.5
3487.36	333
3486.07	347
3484.78	354.5
3483.49	361
3482.19	353
3480.9	354.5
3479.61	374
3478.31	373
3477.02	383.5
3475.73	379
3474.43	388
3473.14	392
3471.84	398.5
3470.54	390.5
3469.25	401.5
3467.95	394.5
3466.66	404
3465.36	397.5
3464.06	400
3462.76	407.5
3461.46	401.5
3460.17	418
3458.87	428.5
3457.57	406
3456.27	421
3454.97	414
3453.67	428.5
3452.37	427.5
3451.07	437.5
3449.77	433.5
3448.47	443.5
3447.16	451.5
3445.86	456
3444.56	446.5
3443.26	477
3441.95	485.5
3440.65	494.5
3439.35	496.5
3438.04	503.5
3436.74	507.5
3435.43	520
3434.13	525.5
3432.82	524.5
3431.52	549
3430.21	547
3428.9	552.5
3427.6	569.5
3426.29	581.5
3424.98	575.5
3423.67	590.5
3422.36	612
3421.06	605
3419.75	638.5
3418.44	632.5
3417.13	608.5
3415.82	643
3414.51	627
3413.2	647
3411.88	653
3410.57	634.5
3409.26	665
3407.95	665
3406.64	675
3405.32	675.5
3404.01	686.5
3402.7	674.5
3401.38	691.5
3400.07	684
3398.75	719.5
3397.44	716
3396.12	690
3394.81	717
3393.49	726
3392.18	713.5
3390.86	739
3389.54	745.5
3388.23	740
3386.91	775
3385.59	769
3384.27	775
3382.95	782
3381.63	788
3380.31	793
3378.99	795
3377.67	802.5
3376.35	794.5
3375.03	820.5
3373.71	840
3372.39	867.5
3371.07	811
3369.75	844
3368.42	837.5
3367.1	859.5
3365.78	867.5
3364.45	888.5
3363.13	862.5
3361.81	888.5
3360.48	879
3359.16	885.5
3357.83	925
3356.51	904.5
3355.18	901.5
3353.85	911.5
3352.53	926
3351.2	912.5
3349.87	916
3348.54	926.5
3347.22	937.5
3345.89	927.5
3344.56	943
3343.23	944.5
3341.9	948
3340.57	947
3339.24	974.5
3337.91	958
3336.58	958.5
3335.25	970.5
3333.92	981
3332.58	971
3331.25	975.5
3329.92	974.5
3328.59	960.5
3327.25	979.5
3325.92	1003
3324.58	1018
3323.25	1022
3321.92	1010.5
3320.58	1009
3319.25	1003.5
3317.91	1011
3316.57	1034
3315.24	1021
3313.9	1037.5
3312.56	1052.5
3311.23	1073.5
3309.89	1041.5
3308.55	1079
3307.21	1041
3305.87	1046.5
3304.53	1065
3303.19	1068.5
3301.85	1076
3300.51	1070
3299.17	1080.5
3297.83	1100
3296.49	1113.5
3295.15	1124
3293.81	1099
3292.46	1126
3291.12	1138
3289.78	1131.5
3288.43	1089.5
3287.09	1097.5
3285.75	1118
3284.4	1128
3283.06	1107.5
3281.71	1150
3280.37	1125
3279.02	1153.5
3277.67	1157
3276.33	1151
3274.98	1167
3273.63	1158
3272.28	1184.5
3270.94	1192
3269.59	1211
3268.24	1230
3266.89	1210
3265.54	1238.5
3264.19	1226
3262.84	1269
3261.49	1291
3260.14	1292
3258.79	1349
3257.44	1339.5
3256.08	1361
3254.73	1399.5
3253.38	1424.5
3252.03	1466.5
3250.67	1511
3249.32	1531.5
3247.96	1585
3246.61	1648
3245.26	1641.5
3243.9	1678
3242.54	1727.5
3241.19	1787
3239.83	1808.5
3238.48	1861
3237.12	1905.5
3235.76	1974
3234.41	2009
3233.05	2043.5
3231.69	2104
3230.33	2138.5
3228.97	2195.5
3227.61	2238
3226.25	2253.5
3224.89	2300.5
3223.53	2323.5
3222.17	2374
3220.81	2404.5
3219.45	2433.5
3218.09	2459
3216.72	2489
3215.36	2523
3214	2525.5
3212.63	2535.5
3211.27	2599
3209.91	2613.5
3208.54	2647
3207.18	2643.5
3205.81	2658
3204.45	2669.5
3203.08	2658.5
3201.71	2703
3200.35	2743.5
3198.98	2697.5
3197.61	2744.5
3196.25	2759
3194.88	2789.5
3193.51	2793.5
3192.14	2778
3190.77	2784.5
3189.4	2833
3188.03	2827
3186.66	2828
3185.29	2847
3183.92	2872.5
3182.55	2882
3181.18	2934
3179.81	2908
3178.44	2928.5
3177.06	2952.5
3175.69	2988.5
3174.32	3005.5
3172.94	3057
3171.57	3061
3170.2	3059
3168.82	3087
3167.45	3110
3166.07	3170.5
3164.69	3137
3163.32	3187.5
3161.94	3212.5
3160.56	3166.5
3159.19	3265.5
3157.81	3281.5
3156.43	3296
3155.05	3364
3153.67	3340.5
3152.3	3386.5
3150.92	3430
3149.54	3441
3148.16	3449.5
3146.78	3459.5
3145.4	3474
3144.01	3508
3142.63	3601.5
3141.25	3581.5
3139.87	3577
3138.49	3614
3137.1	3622.5
3135.72	3629
3134.34	3701.5
3132.95	3714.5
3131.57	3743
3130.18	3704
3128.8	3726
3127.41	3775.5
3126.03	3813
3124.64	3834.5
3123.25	3823.5
3121.87	3842.5
3120.48	3896.5
3119.09	3941.5
3117.7	3961
3116.32	3974.5
3114.93	3987.5
3113.54	4001.5
3112.15	3985.5
3110.76	4031
3109.37	4044
3107.98	4076
3106.59	4116.5
3105.2	4098
3103.8	4146
3102.41	4156.5
3101.02	4143
3099.63	4161
3098.23	4214.5
3096.84	4162
3095.45	4193.5
3094.05	4211
3092.66	4249.5
3091.26	4273.5
3089.87	4254.5
3088.47	4349.5
3087.08	4295.5
3085.68	4385
3084.28	4309
3082.89	4340.5
3081.49	4367.5
3080.09	4410
3078.69	4410
3077.3	4445
3075.9	4410
3074.5	4396.5
3073.1	4436
3071.7	4456.5
3070.3	4445
3068.9	4451.5
3067.5	4479.5
3066.09	4453.5
3064.69	4488
3063.29	4467.5
3061.89	4550.5
3060.48	4549.5
3059.08	4549
3057.68	4526
3056.27	4512.5
3054.87	4574
3053.46	4609.5
3052.06	4564
3050.65	4580
3049.25	4616
3047.84	4666
3046.44	4666
3045.03	4666
3043.62	4696.5
3042.21	4721.5
3040.81	4738
3039.4	4710
3037.99	4760
3036.58	4794
3035.17	4767
3033.76	4842
3032.35	4775.5
3030.94	4850
3029.53	4832.5
3028.12	4857
3026.71	4819
3025.29	4865
3023.88	4895
3022.47	4868.5
3021.06	4859
3019.64	4909.5
3018.23	4879.5
3016.82	4843.5
3015.4	4855
3013.99	4894
3012.57	4924
3011.15	4911.5
3009.74	4951.5
3008.32	4944.5
3006.91	4962.5
3005.49	4994
3004.07	5004.5
3002.65	4997.5
3001.24	4995.5
2999.82	5042
2998.4	5062.5
2996.98	5159.5
2995.56	5094.5
2994.14	5112.5
2992.72	5113
2991.3	5182
2989.88	5204.5
2988.46	5222.5
2987.03	5295.5
2985.61	5266
2984.19	5279
2982.77	5334.5
2981.34	5392
2979.92	5416.5
2978.49	5431
2977.07	5435.5
2975.65	5475.5
2974.22	5520
2972.79	5541.5
2971.37	5530
2969.94	5529
2968.52	5572.5
2967.09	5622
2965.66	5593.5
2964.23	5631
2962.81	5640.5
2961.38	5657.5
2959.95	5672.5
2958.52	5676
2957.09	5759
2955.66	5728
2954.23	5736.5
2952.8	5817.5
2951.37	5681.5
2949.94	5742.5
2948.5	5733.5
2947.07	5788.5
2945.64	5794.5
2944.21	5810.5
2942.77	5814
2941.34	5807.5
2939.91	5860.5
2938.47	5866
2937.04	5912
2935.6	5948
2934.17	5930
2932.73	5961
2931.29	6014.5
2929.86	5968
2928.42	6065.5
2926.98	6072.5
2925.55	6054.5
2924.11	6058
2922.67	6137
2921.23	6097
2919.79	6129
2918.35	6117.5
2916.91	6147.5
2915.47	6105.5
2914.03	6174.5
2912.59	6193
2911.15	6167.5
2909.71	6251
2908.26	6225.5
2906.82	6170.5
2905.38	6203.5
2903.94	6237.5
2902.49	6202
2901.05	6283
2899.6	6288.5
2898.16	6326
2896.71	6266
2895.27	6314
2893.82	6392
2892.38	6331.5
2890.93	6264.5
2889.48	6328
2888.03	6268
2886.59	6371
2885.14	6347.5
2883.69	6419
2882.24	6340
2880.79	6376
2879.34	6362
2877.89	6386.5
2876.44	6368.5
2874.99	6424.5
2873.54	6390.5
2872.09	6407
2870.64	6352
2869.18	6424.5
2867.73	6398.5
2866.28	6435
2864.83	6472
2863.37	6461.5
2861.92	6454.5
2860.46	6487.5
2859.01	6438.5
2857.55	6469
2856.1	6451.5
2854.64	6493
2853.19	6423.5
2851.73	6487.5
2850.27	6458
2848.81	6449.5
2847.36	6469
2845.9	6399.5
2844.44	6503.5
2842.98	6404
2841.52	6398
2840.06	6391
2838.6	6400
2837.14	6355.5
2835.68	6272.5
2834.22	6372.5
2832.76	6303
2831.3	6313.5
2829.83	6364.5
2828.37	6252
2826.91	6299.5
2825.44	6280
2823.98	6252.5
2822.52	6260
2821.05	6239
2819.59	6244.5
2818.12	6210
2816.66	6228
2815.19	6214
2813.72	6189.5
2812.26	6217.5
2810.79	6171
2809.32	6184.5
2807.85	6131.5
2806.38	6109
2804.92	6166
2803.45	6093
2801.98	6131.5
2800.51	6127
2799.04	6089
2797.57	6081.5
2796.1	6109.5
2794.62	6069
2793.15	6064
2791.68	6066
2790.21	6079.5
2788.73	6107
2787.26	6069.5
2785.79	6052
2784.31	6032.5
2782.84	6064.5
2781.36	6113
2779.89	6064
2778.41	6102.5
2776.94	6093.5
2775.46	6094.5
2773.99	6102
2772.51	6146
2771.03	6134
2769.55	6102
2768.07	6126
2766.6	6116.5
2765.12	6167
2763.64	6103
2762.16	6128
2760.68	6116.5
2759.2	6156.5
2757.72	6158.5
2756.24	6131
2754.75	6081.5
2753.27	6103.5
2751.79	6096.5
2750.31	6058
2748.82	6102
2747.34	6081
2745.86	6084.5
2744.37	6089.5
2742.89	6078.5
2741.4	6124.5
2739.92	6075
2738.43	6089.5
2736.94	6090
2735.46	6092.5
2733.97	6066
2732.48	6091.5
2731	6078.5
2729.51	6060.5
2728.02	6103
2726.53	6043
2725.04	6067
2723.55	6110
2722.06	6092
2720.57	6093
2719.08	6083
2717.59	6005
2716.1	6109
2714.61	6079.5
2713.11	6061.5
2711.62	6043.5
2710.13	6078.5
2708.64	6050
2707.14	6048.5
2705.65	6033.5
2704.15	5988
2702.66	5975.5
2701.16	6023.5
2699.67	5989.5
2698.17	6018
2696.67	5950.5
2695.18	6017
2693.68	6009
2692.18	5987
2690.69	5995
2689.19	5966.5
2687.69	5911
2686.19	5960
2684.69	5938.5
2683.19	5919.5
2681.69	5890
2680.19	5890
2678.69	5854
2677.19	5846
2675.68	5894.5
2674.18	5881
2672.68	5883.5
2671.18	5897
2669.67	5855
2668.17	5857.5
2666.66	5855.5
2665.16	5850
2663.66	5869
2662.15	5829
2660.64	5802
2659.14	5787
2657.63	5745
2656.13	5775
2654.62	5810.5
2653.11	5716
2651.6	5774.5
2650.09	5727
2648.58	5730.5
2647.08	5761.5
2645.57	5710
2644.06	5691.5
2642.55	5687
2641.04	5726.5
2639.52	5686
2638.01	5677.5
2636.5	5685.5
2634.99	5628
2633.48	5623.5
2631.96	5540.5
2630.45	5557.5
2628.94	5546
2627.42	5553.5
2625.91	5537.5
2624.39	5615.5
2622.88	5552
2621.36	5490.5
2619.85	5550
2618.33	5506.5
2616.81	5515.5
2615.3	5501
2613.78	5467
2612.26	5448
2610.74	5490.5
2609.22	5504.5
2607.7	5389.5
2606.18	5524.5
2604.66	5413.5
2603.14	5386.5
2601.62	5381.5
2600.1	5362.5
2598.58	5339.5
2597.06	5317
2595.54	5305
2594.01	5279
2592.49	5245
2590.97	5278.5
2589.44	5233.5
2587.92	5265
2586.39	5267.5
2584.87	5301
2583.34	5195
2581.82	5281.5
2580.29	5267
2578.76	5224
2577.24	5163.5
2575.71	5224.5
2574.18	5213.5
2572.65	5253
2571.13	5198
2569.6	5167
2568.07	5189.5
2566.54	5175.5
2565.01	5155.5
2563.48	5135
2561.95	5180
2560.42	5204
2558.88	5102.5
2557.35	5150
2555.82	5138
2554.29	5122.5
2552.75	5093
2551.22	5060
2549.69	5032.5
2548.15	5019
2546.62	5055
2545.08	5033
2543.55	4932.5
2542.01	5002.5
2540.47	4988
2538.94	4957.5
2537.4	4974.5
2535.86	4965.5
2534.33	4941
2532.79	4902
2531.25	4875.5
2529.71	4915
2528.17	4864
2526.63	4838.5
2525.09	4812
2523.55	4819.5
2522.01	4824.5
2520.47	4765
2518.92	4817.5
2517.38	4768.5
2515.84	4776
2514.3	4764
2512.75	4739
2511.21	4727
2509.67	4734.5
2508.12	4714.5
2506.58	4660
2505.03	4670.5
2503.49	4585.5
2501.94	4612
2500.39	4633
2498.85	4592
2497.3	4618.5
2495.75	4558
2494.2	4596
2492.65	4591
2491.11	4537.5
2489.56	4544.5
2488.01	4477.5
2486.46	4544
2484.91	4487
2483.36	4458
2481.8	4440
2480.25	4415.5
2478.7	4397
2477.15	4434.5
2475.6	4425
2474.04	4383.5
2472.49	4401.5
2470.93	4328.5
2469.38	4343
2467.83	4330.5
2466.27	4305.5
2464.71	4267
2463.16	4268.5
2461.6	4243.5
2460.05	4205
2458.49	4226
2456.93	4216
2455.37	4165.5
2453.81	4184
2452.26	4138
2450.7	4173
2449.14	4122.5
2447.58	4102.5
2446.02	4107
2444.46	4056.5
2442.9	4056
2441.33	4079
2439.77	4015
2438.21	4024.5
2436.65	4032.5
2435.08	4051.5
2433.52	4009
2431.96	4012
2430.39	3979
2428.83	3965.5
2427.26	3944
2425.7	3946
2424.13	3899.5
2422.56	3941.5
2421	3917
2419.43	3877.5
2417.86	3882
2416.3	3917.5
2414.73	3881.5
2413.16	3856
2411.59	3825.5
2410.02	3860
2408.45	3857.5
2406.88	3846
2405.31	3828.5
2403.74	3849.5
2402.17	3878
2400.6	3792
2399.02	3787.5
2397.45	3812.5
2395.88	3788
2394.3	3774
2392.73	3795
2391.16	3793
2389.58	3740.5
2388.01	3752
2386.43	3775.5
2384.86	3719.5
2383.28	3750.5
2381.7	3728.5
2380.13	3738.5
2378.55	3728.5
2376.97	3748
2375.39	3720
2373.81	3705.5
2372.23	3683.5
2370.65	3663
2369.07	3685.5
2367.49	3645.5
2365.91	3642.5
2364.33	3650
2362.75	3637.5
2361.17	3656.5
2359.59	3608.5
2358.01	3609.5
2356.42	3608
2354.84	3575
2353.25	3581.5
2351.67	3553.5
2350.09	3589
2348.5	3542.5
2346.92	3580
2345.33	3579
2343.74	3567.5
2342.16	3547.5
2340.57	3555
2338.98	3521
2337.39	3494.5
2335.81	3492.5
2334.22	3483.5
2332.63	3463
2331.04	3480.5
2329.45	3485.5
2327.86	3497
2326.27	3503.5
2324.68	3477.5
2323.09	3449
2321.49	3430.5
2319.9	3423.5
2318.31	3421
2316.72	3335
2315.12	3373.5
2313.53	3330.5
2311.93	3302
2310.34	3296.5
2308.74	3325
2307.15	3338.5
2305.55	3350
2303.96	3274
2302.36	3283
2300.76	3272.5
2299.17	3296
2297.57	3225.5
2295.97	3204
2294.37	3199
2292.77	3193
2291.17	3189.5
2289.57	3177.5
2287.97	3194.5
2286.37	3181.5
2284.77	3153
2283.17	3151.5
2281.57	3171
2279.96	3152.5
2278.36	3133.5
2276.76	3118.5
2275.15	3111
2273.55	3116
2271.95	3109.5
2270.34	3091.5
2268.74	3065.5
2267.13	3051.5
2265.52	3045.5
2263.92	3038.5
2262.31	2972.5
2260.7	3010.5
2259.1	3008
2257.49	2977
2255.88	3017.5
2254.27	2953.5
2252.66	2988.5
2251.05	2977
2249.44	2922.5
2247.83	2982.5
2246.22	2941
2244.61	2959
2243	2976.5
2241.39	2929.5
2239.77	2940.5
2238.16	2957.5
2236.55	2884
2234.93	2868.5
2233.32	2868
2231.7	2828
2230.09	2837.5
2228.47	2837
2226.86	2835.5
2225.24	2819
2223.63	2819
2222.01	2817.5
2220.39	2816
2218.77	2744
2217.16	2745
2215.54	2738.5
2213.92	2728
2212.3	2736
2210.68	2710
2209.06	2708.5
2207.44	2685
2205.82	2685.5
2204.19	2681.5
2202.57	2676
2200.95	2628
2199.33	2689
2197.7	2667
2196.08	2639.5
2194.46	2668.5
2192.83	2646
2191.21	2618.5
2189.58	2638.5
2187.96	2660.5
2186.33	2592
2184.7	2604.5
2183.08	2595
2181.45	2556.5
2179.82	2567.5
2178.19	2572
2176.57	2571
2174.94	2547.5
2173.31	2530.5
2171.68	2532
2170.05	2513
2168.42	2516
2166.79	2480.5
2165.16	2513
2163.52	2472.5
2161.89	2457
2160.26	2454.5
2158.63	2444.5
2156.99	2411
2155.36	2448.5
2153.73	2473
2152.09	2408.5
2150.46	2379.5
2148.82	2406
2147.18	2386.5
2145.55	2348.5
2143.91	2358
2142.27	2371.5
2140.64	2379
2139	2306
2137.36	2311.5
2135.72	2319.5
2134.08	2316
2132.44	2263
2130.8	2267
2129.16	2268.5
2127.52	2264.5
2125.88	2229
2124.24	2217.5
2122.6	2208
2120.95	2238
2119.31	2196.5
2117.67	2170.5
2116.02	2198
2114.38	2171.5
2112.74	2154.5
2111.09	2130.5
2109.45	2157
2107.8	2140.5
2106.15	2095.5
2104.51	2113.5
2102.86	2120
2101.21	2099
2099.56	2089.5
2097.92	2101
2096.27	2095
2094.62	2090
2092.97	2065
2091.32	2076.5
2089.67	2072
2088.02	2083.5
2086.37	2088
2084.72	2041.5
2083.06	2028
2081.41	2029
2079.76	2027
2078.1	2011.5
2076.45	2032.5
2074.8	2010
2073.14	1985
2071.49	2011.5
2069.83	2014
2068.18	2002.5
2066.52	2047.5
2064.86	1988.5
2063.21	2003
2061.55	2006.5
2059.89	1997.5
2058.23	1968.5
2056.57	1952
2054.92	1954.5
2053.26	1955.5
2051.6	1945.5
2049.94	1948.5
2048.27	1906
2046.61	1932.5
2044.95	1934
2043.29	1931.5
2041.63	1894
2039.97	1886.5
2038.3	1866
2036.64	1846
2034.97	1839
2033.31	1853.5
2031.64	1840
2029.98	1832
2028.31	1829.5
2026.65	1835
2024.98	1821.5
2023.31	1810
2021.65	1784.5
2019.98	1744.5
2018.31	1799
2016.64	1743
2014.97	1738.5
2013.3	1742.5
2011.63	1741
2009.96	1745.5
2008.29	1761.5
2006.62	1755.5
2004.95	1726
2003.28	1701
2001.6	1726
1999.93	1722
1998.26	1698
1996.58	1694
1994.91	1671.5
1993.24	1674.5
1991.56	1699
1989.89	1663
1988.21	1656.5
1986.53	1654.5
1984.86	1699
1983.18	1642
1981.5	1650.5
1979.82	1619
1978.15	1643.5
1976.47	1624.5
1974.79	1595
1973.11	1616
1971.43	1583.5
1969.75	1620.5
1968.07	1596.5
1966.38	1590.5
1964.7	1577
1963.02	1562
1961.34	1558.5
1959.66	1565
1957.97	1546.5
1956.29	1521.5
1954.6	1538
1952.92	1526.5
1951.23	1513.5
1949.55	1498
1947.86	1516.5
1946.18	1517.5
1944.49	1536
1942.8	1499
1941.11	1475
1939.43	1474
1937.74	1465
1936.05	1467.5
1934.36	1466
1932.67	1468
1930.98	1458.5
1929.29	1424
1927.6	1435
1925.91	1387.5
1924.21	1403
1922.52	1418
1920.83	1388
1919.14	1395.5
1917.44	1377.5
1915.75	1374.5
1914.05	1363
1912.36	1367.5
1910.66	1397
1908.97	1379.5
1907.27	1373.5
1905.58	1374.5
1903.88	1351
1902.18	1325
1900.48	1326.5
1898.79	1313
1897.09	1322
1895.39	1311
1893.69	1305.5
1891.99	1294.5
1890.29	1284
1888.59	1282.5
1886.89	1284
1885.18	1267
1883.48	1261.5
1881.78	1257
1880.08	1251
1878.37	1212
1876.67	1225
1874.96	1236.5
1873.26	1217.5
1871.55	1206.5
1869.85	1226
1868.14	1202.5
1866.44	1189.5
1864.73	1184
1863.02	1216.5
1861.32	1169
1859.61	1178.5
1857.9	1151.5
1856.19	1168.5
1854.48	1191
1852.77	1154.5
1851.06	1165.5
1849.35	1152
1847.64	1152.5
1845.93	1157.5
1844.21	1149
1842.5	1150.5
1840.79	1110
1839.08	1104.5
1837.36	1105.5
1835.65	1128.5
1833.93	1114
1832.22	1106.5
1830.5	1102.5
1828.79	1109.5
1827.07	1085.5
1825.36	1093
1823.64	1083
1821.92	1063
1820.2	1051
1818.48	1085
1816.77	1041
1815.05	1049
1813.33	1069.5
1811.61	1045.5
1809.89	1052
1808.16	1039
1806.44	1036
1804.72	1061
1803	1031.5
1801.28	1013.5
1799.55	999.5
1797.83	1006
1796.11	1006
1794.38	978
1792.66	982
1790.93	983.5
1789.21	977.5
1787.48	982.5
1785.75	981
1784.03	998.5
1782.3	967.5
1780.57	958.5
1778.84	965.5
1777.11	943.5
1775.38	959
1773.66	961.5
1771.93	949.5
1770.19	946
1768.46	948
1766.73	965
1765	942.5
1763.27	952.5
1761.54	927.5
1759.8	976.5
1758.07	968.5
1756.34	992
1754.6	983
1752.87	1007
1751.13	1000
1749.4	1000.5
1747.66	981
1745.92	995.5
1744.19	1011.5
1742.45	987.5
1740.71	983.5
1738.97	973.5
1737.23	935
1735.49	947.5
1733.75	923.5
1732.01	915.5
1730.27	909.5
1728.53	898
1726.79	893
1725.05	885.5
1723.31	870.5
1721.57	865.5
1719.82	863.5
1718.08	835.5
1716.34	862
1714.59	857.5
1712.85	858
1711.1	855
1709.36	847.5
1707.61	830
1705.86	833
1704.12	833.5
1702.37	818.5
1700.62	796
1698.87	804.5
1697.12	801.5
1695.37	829.5
1693.62	798.5
1691.87	806.5
1690.12	793
1688.37	784
1686.62	794
1684.87	783.5
1683.12	792.5
1681.36	786
1679.61	771.5
1677.86	796.5
1676.1	792.5
1674.35	794
1672.59	816
1670.84	818
1669.08	857
1667.33	844.5
1665.57	884.5
1663.81	914.5
1662.06	950.5
1660.3	1019.5
1658.54	1029.5
1656.78	1015
1655.02	1030
1653.26	1004.5
1651.5	970.5
1649.74	911
1647.98	864.5
1646.22	842.5
1644.46	820.5
1642.7	795.5
1640.93	758.5
1639.17	748.5
1637.41	752
1635.64	729
1633.88	737.5
1632.11	715.5
1630.35	718.5
1628.58	727
1626.81	701
1625.05	713.5
1623.28	687
1621.51	676.5
1619.75	690.5
1617.98	672
1616.21	674.5
1614.44	653.5
1612.67	676.5
1610.9	673
1609.13	654
1607.36	668.5
1605.58	659
1603.81	656
1602.04	652.5
1600.27	652
1598.49	656
1596.72	648
1594.95	655.5
1593.17	648
1591.4	660.5
1589.62	641.5
1587.84	631
1586.07	636.5
1584.29	636
1582.51	622
1580.74	611
1578.96	626.5
1577.18	613
1575.4	650.5
1573.62	637.5
1571.84	628.5
1570.06	615.5
1568.28	613
1566.5	600.5
1564.72	588.5
1562.93	605.5
1561.15	590.5
1559.37	580.5
1557.58	592
1555.8	603.5
1554.02	588.5
1552.23	595.5
1550.45	602
1548.66	584.5
1546.87	592.5
1545.09	571
1543.3	588
1541.51	561
1539.72	570
1537.94	566.5
1536.15	567.5
1534.36	543.5
1532.57	553.5
1530.78	572
1528.99	563
1527.2	578.5
1525.4	554.5
1523.61	550
1521.82	543.5
1520.03	541
1518.23	558
1516.44	541
1514.65	548
1512.85	576.5
1511.06	539
1509.26	557
1507.46	548
1505.67	544
1503.87	566.5
1502.07	548
1500.28	551
1498.48	564.5
1496.68	544
1494.88	572
1493.08	571
1491.28	573.5
1489.48	586
1487.68	587.5
1485.88	614
1484.08	579.5
1482.27	613.5
1480.47	627
1478.67	653.5
1476.86	655
1475.06	697
1473.25	709.5
1471.45	762
1469.64	787.5
1467.84	832
1466.03	879
1464.23	913.5
1462.42	946
1460.61	984
1458.8	1010.5
1456.99	1033
1455.18	1037
1453.37	1085
1451.56	1108.5
1449.75	1138.5
1447.94	1199
1446.13	1240.5
1444.32	1263
1442.51	1287.5
1440.7	1267
1438.88	1257
1437.07	1194
1435.26	1121
1433.44	1029
1431.63	932
1429.81	836.5
1427.99	782.5
1426.18	727
1424.36	712.5
1422.54	652
1420.73	618.5
1418.91	612
1417.09	602.5
1415.27	565.5
1413.45	525.5
1411.63	527.5
1409.81	539.5
1407.99	520
1406.17	517.5
1404.35	517.5
1402.53	500.5
1400.7	496
1398.88	486
1397.06	488
1395.23	466
1393.41	471.5
1391.58	467.5
1389.76	470
1387.93	479
1386.11	473
1384.28	456
1382.45	477
1380.62	472.5
1378.8	453
1376.97	487
1375.14	472.5
1373.31	460.5
1371.48	490.5
1369.65	492
1367.82	488.5
1365.99	475.5
1364.16	483
1362.32	477.5
1360.49	455
1358.66	475.5
1356.82	478.5
1354.99	463.5
1353.16	456
1351.32	477
1349.48	456.5
1347.65	469
1345.81	497
1343.98	467.5
1342.14	473
1340.3	479
1338.46	485.5
1336.62	468.5
1334.79	491
1332.95	503.5
1331.11	521.5
1329.27	517
1327.42	547
1325.58	569.5
1323.74	607
1321.9	596
1320.06	629.5
1318.21	659.5
1316.37	689.5
1314.53	719.5
1312.68	755
1310.84	791.5
1308.99	833.5
1307.15	889.5
1305.3	911
1303.45	940
1301.61	950
1299.76	941
1297.91	939.5
1296.06	871.5
1294.21	800.5
1292.36	746.5
1290.51	699
1288.66	684
1286.81	652
1284.96	652
1283.11	634.5
1281.26	619
1279.4	646.5
1277.55	627
1275.7	638
1273.84	634
1271.99	629
1270.13	648.5
1268.28	631.5
1266.42	651
1264.56	657.5
1262.71	632
1260.85	609.5
1258.99	609
1257.13	595.5
1255.27	548
1253.41	572
1251.56	523.5
1249.7	490
1247.83	481.5
1245.97	489
1244.11	476
1242.25	452
1240.39	461
1238.52	449
1236.66	426
1234.8	448.5
1232.93	421
1231.07	422.5
1229.2	400
1227.34	384.5
1225.47	361
1223.6	371.5
1221.74	393.5
1219.87	387.5
1218	392
1216.13	361
1214.26	390
1212.39	378
1210.53	372
1208.65	360.5
1206.78	347
1204.91	348
1203.04	364
1201.17	355
1199.3	370
1197.42	363
1195.55	366
1193.68	364
1191.8	378
1189.93	349
1188.05	336.5
1186.17	342
1184.3	345.5
1182.42	343
1180.54	335
1178.67	352
1176.79	370.5
1174.91	346
1173.03	380
1171.15	349.5
1169.27	356.5
1167.39	356.5
1165.51	348
1163.63	342
1161.75	359
1159.86	337.5
1157.98	353
1156.1	361.5
1154.21	370
1152.33	358
1150.44	365
1148.56	376.5
1146.67	375
1144.79	361
1142.9	357
1141.01	372.5
1139.12	364
1137.24	380
1135.35	394
1133.46	429
1131.57	452
1129.68	480
1127.79	475
1125.9	488.5
1124.01	476
1122.12	471
1120.22	471
1118.33	452
1116.44	452
1114.54	453
1112.65	464
1110.75	461
1108.86	469
1106.96	465
1105.07	488
1103.17	508.5
1101.27	500.5
1099.38	528
1097.48	555
1095.58	563
1093.68	591.5
1091.78	606
1089.88	641
1087.98	640.5
1086.08	685
1084.18	692
1082.28	652
1080.38	646
1078.47	671.5
1076.57	652.5
1074.67	635.5
1072.76	628
1070.86	627
1068.95	656.5
1067.05	675.5
1065.14	677.5
1063.24	684
1061.33	622
1059.42	582.5
1057.51	563.5
1055.6	516
1053.7	505.5
1051.79	467.5
1049.88	476
1047.97	490
1046.06	485
1044.14	486.5
1042.23	478.5
1040.32	463
1038.41	461
1036.5	463.5
1034.58	439
1032.67	457.5
1030.75	452
1028.84	443.5
1026.92	432.5
1025.01	465
1023.09	460.5
1021.17	445
1019.26	466.5
1017.34	440
1015.42	430
1013.5	426.5
1011.58	430
1009.66	427.5
1007.74	415
1005.82	412
1003.9	408
1001.98	413
1000.06	405
998.134	426.5
996.212	446
994.288	432
992.364	429.5
990.44	447.5
988.515	430
986.589	451.5
984.663	461
982.737	481.5
980.81	480
978.883	523
976.955	538
975.027	561
973.098	540
971.169	560
969.239	547.5
967.308	546.5
965.378	533
963.447	540
961.516	550
959.583	551.5
957.65	548.5
955.718	544
953.784	549
951.85	565
949.916	560.5
947.981	577
946.045	570
944.109	575.5
942.173	566
940.236	601
938.298	601.5
936.36	580.5
934.422	546.5
932.484	560
930.544	535
928.604	516
926.664	510
924.724	490
922.782	484
920.84	488
918.898	475.5
916.955	490
915.012	483.5
913.068	486
911.124	499.5
909.18	476.5
907.235	510.5
905.289	483
903.343	493
901.397	501.5
899.45	501
897.502	496
895.554	527
893.605	541.5
891.657	566.5
889.707	571
887.758	580
885.807	572
883.856	574
881.905	549
879.953	580
878.001	580.5
876.048	581
874.094	581
872.14	594
870.186	579
868.232	584.5
866.276	594
864.321	592
862.365	567.5
860.408	548.5
858.451	584.5
856.493	546.5
854.535	546
852.576	556.5
850.617	541.5
848.658	549
846.698	556
844.737	548.5
842.776	540.5
840.814	521
838.852	543
836.89	505.5
834.927	491
832.963	464
830.999	462
829.035	445.5
827.07	449
825.105	424
823.139	427.5
821.172	413
819.206	402
817.238	384.5
815.27	366
813.301	363
811.333	368
809.363	367.5
807.394	331
805.424	350
803.453	328
801.482	325
799.509	313.5
797.538	311
795.565	307
793.592	292
791.618	293
789.643	278
787.669	283
785.693	281.5
783.718	294
781.742	274
779.765	278.5
777.788	293.5
775.811	284.5
773.832	292.5
771.853	296.5
769.875	274
767.895	278.5
765.915	280
763.934	279
761.953	281.5
759.972	276
757.99	282.5
756.007	271.5
754.024	276.5
752.041	272.5
750.056	284
748.072	270
746.087	281.5
744.102	290.5
742.116	273
740.13	270.5
738.143	269
736.155	286
734.167	289
732.179	299.5
730.19	295.5
728.2	301
726.21	301
724.22	290.5
722.229	282
720.237	269.5
718.246	264
716.253	260
714.26	274
712.267	269.5
710.273	265.5
708.279	260.5
706.284	254.5
704.289	262
702.293	256
700.296	251.5
698.3	241.5
696.303	231
694.305	246
692.307	237
690.307	250
688.308	248
686.309	242.5
684.308	253
682.308	249
680.306	248
678.304	240.5
676.302	246
674.3	250
672.296	240.5
670.293	264.5
668.289	236
666.284	250
664.278	266
662.273	259
660.266	261.5
658.26	244
656.252	259
654.244	275
652.237	245
650.227	258.5
648.218	242.5
646.209	250.5
644.198	283.5
642.188	249
640.177	277
638.165	272
636.153	258.5
634.14	271
632.128	278
630.113	281.5
628.099	264.5
626.085	282
624.07	272
622.054	293
620.038	291.5
618.021	301
616.004	292.5
613.986	296.5
611.968	302.5
609.949	304
607.93	302
605.911	305
603.891	297
601.87	296.5
599.848	296.5
597.827	293
595.805	300
593.782	298.5
591.759	300.5
589.735	305.5
587.711	292.5
585.687	289
583.661	275
581.636	281
579.609	279
577.583	290
575.555	274
573.527	272.5
571.5	282.5
569.471	274
567.441	291
565.412	297.5
563.382	281.5
561.351	268.5
559.32	285
557.289	298.5
555.257	295.5
553.223	317
551.19	337
549.157	341.5
547.122	363
545.088	362.5
543.053	380
541.017	413.5
538.981	443.5
536.943	502.5
534.907	559
532.869	739.5
530.831	970.5
528.792	1482
526.752	2208.5
524.713	3420
522.673	4535.5
520.632	4718
518.591	4015.5
516.549	2921
514.507	1963
512.464	1305
510.42	896
508.377	688
506.332	559.5
504.288	483
502.242	461.5
500.196	430.5
498.15	413.5
496.104	386
494.056	384.5
492.008	387
489.96	387
487.911	347
485.862	360
483.812	361.5
481.761	366
479.71	353.5
477.659	363
475.607	366
473.555	354.5
471.502	367.5
469.448	339
467.395	346.5
465.34	343.5
463.285	318
461.23	351.5
459.174	346
457.118	351
455.061	352
453.003	375.5
450.945	355.5
448.887	372.5
446.828	363.5
444.768	360.5
442.708	357.5
440.647	349.5
438.587	366.5
436.525	380.5
434.463	391.5
432.4	386.5
430.337	408.5
428.274	395.5
426.21	365
424.145	393
422.079	390
420.014	378.5
417.948	388
415.882	410
413.814	407.5
411.746	379
409.679	420
407.609	430.5
405.54	401
403.47	418
401.401	409.5
399.329	413
397.258	397
395.187	402
393.114	419.5
391.041	403
388.968	411
386.895	430.5
384.82	436
382.745	433
380.67	432.5
378.594	420.5
376.517	440.5
374.44	428
372.363	412.5
370.286	432.5
368.207	406
366.128	427
364.049	425
361.969	442
359.888	443.5
357.807	461
355.725	463
353.643	455.5
351.561	456.5
349.477	455.5
347.394	437
345.31	463.5
343.226	449.5
341.141	465
339.055	461
336.968	493.5
334.882	495
332.795	509
330.707	492
328.618	507
326.53	497.5
324.44	493
322.351	520
320.26	533
318.17	558.5
316.078	565.5
313.987	604
311.895	618.5
309.802	626
307.708	657
305.614	654
303.52	667
301.425	668
299.329	649
297.233	643.5
295.137	647
293.039	617
290.942	624
288.844	613.5
286.745	619.5
284.647	640
282.546	635
280.446	632
278.346	609.5
276.245	627
274.143	612
272.041	610.5
269.939	640.5
267.835	668
265.731	651
263.627	664
261.522	677
259.417	690
257.311	678.5
255.204	672
253.098	672
250.99	679
248.882	696
246.774	699.5
244.664	702
242.555	729.5
240.445	746
238.334	751.5
236.223	750.5
234.112	761
232	774.5
229.888	768
227.775	773
225.661	797
223.546	789
221.431	794.5
219.316	789
217.201	825.5
215.084	827.5
212.967	836.5
210.85	830
208.732	807.5
206.614	817
204.495	821
202.375	798
200.256	820
198.135	809.5
196.014	818
193.893	844
191.771	826
189.648	822.5
187.525	824
185.401	844
183.277	815
181.152	807
179.027	819
176.901	819
174.775	832.5
172.648	845
170.521	826.5
168.393	862.5
166.265	873
164.136	900
162.007	917
159.876	933
157.746	936
155.615	934
153.483	952.5
151.351	944.5
149.219	1011
147.086	1030
144.952	1071
142.818	1091.5
140.684	1110
138.548	1171
136.413	1225
134.276	1235
132.139	1253
130.002	1304
127.864	1344.5
125.725	1374
123.587	1464
121.447	1489
119.307	1547
117.166	1626.5
115.026	1654.5
112.885	1730
110.743	1793.5
108.6	1846.5
106.456	1885
104.313	1895
102.169	1909
100.023	1878
97.8789	1795
95.7328	1666
93.5869	1453
91.4392	1215
89.2919	1029
87.1447	832
84.9959	642.5
