3528.51	144.5
3527.23	163.5
3525.95	170
3524.67	181.5
3523.39	180
3522.1	189.5
3520.82	179.5
3519.54	182.5
3518.26	190.5
3516.97	179.5
3515.69	187
3514.4	179
3513.12	181
3511.84	194.5
3510.55	195.5
3509.26	189
3507.98	198
3506.69	188
3505.41	196
3504.12	187.5
3502.83	196
3501.54	204.5
3500.26	208
3498.97	198
3497.68	208
3496.39	207
3495.1	214
3493.81	221
3492.52	224
3491.23	223
3489.94	228
3488.65	233
3487.36	238.5
3486.07	239
3484.78	242
3483.49	246.5
3482.19	236.5
3480.9	263.5
3479.61	247
3478.31	264.5
3477.02	269
3475.73	265
3474.43	258.5
3473.14	269
3471.84	275.5
3470.54	278.5
3469.25	274.5
3467.95	272.5
3466.66	266
3465.36	283
3464.06	281
3462.76	288.5
3461.46	285
3460.17	289
3458.87	298
3457.57	297.5
3456.27	296
3454.97	290.5
3453.67	313
3452.37	302
3451.07	302
3449.77	310
3448.47	309.5
3447.16	323.5
3445.86	330
3444.56	325
3443.26	332
3441.95	329
3440.65	345
3439.35	324.5
3438.04	353.5
3436.74	356
3435.43	385
3434.13	367
3432.82	388.5
3431.52	379
3430.21	406
3428.9	404.5
3427.6	407.5
3426.29	415
3424.98	420.5
3423.67	430.5
3422.36	430.5
3421.06	431.5
3419.75	444
3418.44	442
3417.13	464
3415.82	461
3414.51	474
3413.2	462.5
3411.88	457.5
3410.57	488
3409.26	492.5
3407.95	481
3406.64	484
3405.32	494
3404.01	481
3402.7	512.5
3401.38	494
3400.07	516.5
3398.75	523.5
3397.44	523.5
3396.12	499.5
3394.81	528.5
3393.49	531
3392.18	546
3390.86	542
3389.54	564
3388.23	545
3386.91	542
3385.59	562.5
3384.27	559.5
3382.95	567.5
3381.63	568
3380.31	570
3378.99	594
3377.67	595
3376.35	580
3375.03	588
3373.71	598.5
3372.39	598.5
3371.07	615
3369.75	609
3368.42	618
3367.1	627.5
3365.78	640
3364.45	660.5
3363.13	654
3361.81	631.5
3360.48	629
3359.16	639.5
3357.83	659
3356.51	645.5
3355.18	656
3353.85	671
3352.53	669.5
3351.2	667.5
3349.87	675
3348.54	673.5
3347.22	672.5
3345.89	685
3344.56	686
3343.23	701.5
3341.9	687.5
3340.57	710
3339.24	700
3337.91	702
3336.58	675
3335.25	702
3333.92	712
3332.58	717
3331.25	707.5
3329.92	704
3328.59	691.5
3327.25	716
3325.92	720.5
3324.58	726
3323.25	738.5
3321.92	732.5
3320.58	727.5
3319.25	749
3317.91	750.5
3316.57	746.5
3315.24	756
3313.9	750
3312.56	768
3311.23	763
3309.89	763
3308.55	780
3307.21	766
3305.87	779
3304.53	786
3303.19	791.5
3301.85	783
3300.51	799
3299.17	797
3297.83	806
3296.49	791
3295.15	809
3293.81	798.5
3292.46	807
3291.12	825.5
3289.78	802
3288.43	817.5
3287.09	829.5
3285.75	825
3284.4	818.5
3283.06	820
3281.71	821
3280.37	828
3279.02	839.5
3277.67	836.5
3276.33	849
3274.98	840
3273.63	864
3272.28	877
3270.94	869.5
3269.59	853.5
3268.24	885
3266.89	900
3265.54	933
3264.19	935
3262.84	941
3261.49	929
3260.14	954
3258.79	978.5
3257.44	987
3256.08	1009
3254.73	1051.5
3253.38	1059.5
3252.03	1064
3250.67	1101.5
3249.32	1139.5
3247.96	1169.5
3246.61	1181
3245.26	1205.5
3243.9	1245.5
3242.54	1302.5
3241.19	1302
3239.83	1315.5
3238.48	1364.5
3237.12	1397.5
3235.76	1442.5
3234.41	1468.5
3233.05	1508.5
3231.69	1521
3230.33	1552
3228.97	1599.5
3227.61	1638
3226.25	1686.5
3224.89	1688.5
3223.53	1727.5
3222.17	1756.5
3220.81	1769
3219.45	1800.5
3218.09	1815.5
3216.72	1799.5
3215.36	1874
3214	1852
3212.63	1885.5
3211.27	1924.5
3209.91	1928
3208.54	1941.5
3207.18	1956
3205.81	1964
3204.45	1984.5
3203.08	1973
3201.71	1956
3200.35	1979.5
3198.98	2025
3197.61	1987
3196.25	2037.5
3194.88	2047.5
3193.51	2051.5
3192.14	2047
3190.77	2084.5
3189.4	2084
3188.03	2095
3186.66	2119
3185.29	2116
3183.92	2115.5
3182.55	2119.5
3181.18	2160.5
3179.81	2140
3178.44	2174
3177.06	2158.5
3175.69	2201.5
3174.32	2206.5
3172.94	2220.5
3171.57	2264
3170.2	2259
3168.82	2239
3167.45	2305.5
3166.07	2329.5
3164.69	2334
3163.32	2311.5
3161.94	2333.5
3160.56	2363.5
3159.19	2375.5
3157.81	2390.5
3156.43	2423.5
3155.05	2425
3153.67	2451.5
3152.3	2464.5
3150.92	2486
3149.54	2505.5
3148.16	2534.5
3146.78	2554.5
3145.4	2553
3144.01	2559
3142.63	2567
3141.25	2623.5
3139.87	2615.5
3138.49	2643
3137.1	2657.5
3135.72	2668.5
3134.34	2703
3132.95	2703.5
3131.57	2690.5
3130.18	2744.5
3128.8	2790
3127.41	2773.5
3126.03	2794.5
3124.64	2762
3123.25	2806.5
3121.87	2824
3120.48	2885.5
3119.09	2879
3117.7	2914.5
3116.32	2881.5
3114.93	2920.5
3113.54	2948.5
3112.15	2937
3110.76	2972.5
3109.37	2978
3107.98	2980
3106.59	2990
3105.2	3034
3103.8	3020.5
3102.41	3035.5
3101.02	3057.5
3099.63	3037.5
3098.23	3091
3096.84	3096
3095.45	3078.5
3094.05	3095.5
3092.66	3149
3091.26	3150
3089.87	3159.5
3088.47	3173
3087.08	3171
3085.68	3206
3084.28	3217.5
3082.89	3258.5
3081.49	3213
3080.09	3260
3078.69	3205.5
3077.3	3288.5
3075.9	3261.5
3074.5	3258.5
3073.1	3291.5
3071.7	3310.5
3070.3	3267
3068.9	3298.5
3067.5	3317.5
3066.09	3296.5
3064.69	3332.5
3063.29	3297.5
3061.89	3313.5
3060.48	3352
3059.08	3361
3057.68	3401
3056.27	3392.5
3054.87	3387
3053.46	3385.5
3052.06	3399
3050.65	3401
3049.25	3429
3047.84	3426.5
3046.44	3420
3045.03	3468
3043.62	3462.5
3042.21	3425.5
3040.81	3511
3039.4	3521.5
3037.99	3535
3036.58	3506
3035.17	3518.5
3033.76	3539
3032.35	3549.5
3030.94	3580
3029.53	3593
3028.12	3576
3026.71	3565.5
3025.29	3575
3023.88	3569.5
3022.47	3587.5
3021.06	3629.5
3019.64	3634.5
3018.23	3583
3016.82	3565
3015.4	3591.5
3013.99	3665.5
3012.57	3661.5
3011.15	3592.5
3009.74	3635
3008.32	3675
3006.91	3695
3005.49	3694.5
3004.07	3707
3002.65	3687.5
3001.24	3718.5
2999.82	3753.5
2998.4	3785.5
2996.98	3774.5
2995.56	3805.5
2994.14	3758.5
2992.72	3793.5
2991.3	3835
2989.88	3875.5
2988.46	3856
2987.03	3867.5
2985.61	3894.5
2984.19	3878.5
2982.77	3880
2981.34	3943
2979.92	3986
2978.49	3983
2977.07	3992.5
2975.65	4033
2974.22	4071
2972.79	4101.5
2971.37	4069.5
2969.94	4093.5
2968.52	4125
2967.09	4129
2965.66	4127
2964.23	4205.5
2962.81	4203.5
2961.38	4224
2959.95	4209.5
2958.52	4230
2957.09	4237
2955.66	4231.5
2954.23	4243.5
2952.8	4244.5
2951.37	4312.5
2949.94	4250.5
2948.5	4307
2947.07	4269
2945.64	4302.5
2944.21	4346.5
2942.77	4350
2941.34	4385
2939.91	4375
2938.47	4420.5
2937.04	4432.5
2935.6	4497
2934.17	4487
2932.73	4454.5
2931.29	4528.5
2929.86	4554
2928.42	4549.5
2926.98	4568.5
2925.55	4580.5
2924.11	4591
2922.67	4596.5
2921.23	4568
2919.79	4573.5
2918.35	4657.5
2916.91	4662.5
2915.47	4679
2914.03	4635
2912.59	4681.5
2911.15	4632
2909.71	4697.5
2908.26	4751.5
2906.82	4713
2905.38	4748
2903.94	4680.5
2902.49	4731.5
2901.05	4771
2899.6	4816.5
2898.16	4781
2896.71	4783.5
2895.27	4805.5
2893.82	4823
2892.38	4828
2890.93	4813
2889.48	4828.5
2888.03	4845.5
2886.59	4817.5
2885.14	4833.5
2883.69	4861.5
2882.24	4826.5
2880.79	4848
2879.34	4872.5
2877.89	4895.5
2876.44	4872
2874.99	4917.5
2873.54	4885.5
2872.09	4862
2870.64	4853.5
2869.18	4886
2867.73	4900.5
2866.28	4871.5
2864.83	4894
2863.37	4946
2861.92	4929
2860.46	4920
2859.01	4967.5
2857.55	4906.5
2856.1	4938
2854.64	4934.5
2853.19	4910
2851.73	4961.5
2850.27	4895.5
2848.81	4910.5
2847.36	4959.5
2845.9	4853.5
2844.44	4861
2842.98	4838
2841.52	4834
2840.06	4799
2838.6	4735
2837.14	4681
2835.68	4745.5
2834.22	4723
2832.76	4700.5
2831.3	4702
2829.83	4662
2828.37	4617.5
2826.91	4655.5
2825.44	4581.5
2823.98	4624
2822.52	4569
2821.05	4602.5
2819.59	4575
2818.12	4568.5
2816.66	4566.5
2815.19	4551
2813.72	4530
2812.26	4480
2810.79	4513.5
2809.32	4492
2807.85	4494
2806.38	4513
2804.92	4471.5
2803.45	4508
2801.98	4475
2800.51	4454.5
2799.04	4464
2797.57	4422
2796.1	4454.5
2794.62	4439.5
2793.15	4443.5
2791.68	4432.5
2790.21	4441
2788.73	4426
2787.26	4446
2785.79	4401.5
2784.31	4436.5
2782.84	4435.5
2781.36	4428
2779.89	4431.5
2778.41	4441.5
2776.94	4432.5
2775.46	4498
2773.99	4474.5
2772.51	4450.5
2771.03	4507
2769.55	4506
2768.07	4497
2766.6	4512.5
2765.12	4518.5
2763.64	4554
2762.16	4500
2760.68	4514
2759.2	4486.5
2757.72	4453.5
2756.24	4485
2754.75	4475.5
2753.27	4466.5
2751.79	4531.5
2750.31	4503
2748.82	4467.5
2747.34	4480.5
2745.86	4491
2744.37	4477.5
2742.89	4449.5
2741.4	4516
2739.92	4482
2738.43	4459.5
2736.94	4470.5
2735.46	4479.5
2733.97	4509.5
2732.48	4449.5
2731	4412
2729.51	4431
2728.02	4456
2726.53	4463
2725.04	4445
2723.55	4470
2722.06	4462
2720.57	4446
2719.08	4471.5
2717.59	4454
2716.1	4429
2714.61	4468.5
2713.11	4471
2711.62	4432.5
2710.13	4497.5
2708.64	4405.5
2707.14	4465.5
2705.65	4409.5
2704.15	4417
2702.66	4450.5
2701.16	4414.5
2699.67	4405.5
2698.17	4380.5
2696.67	4433
2695.18	4398
2693.68	4344
2692.18	4379.5
2690.69	4348.5
2689.19	4410
2687.69	4322.5
2686.19	4331.5
2684.69	4335
2683.19	4330.5
2681.69	4302.5
2680.19	4332
2678.69	4305
2677.19	4308.5
2675.68	4283
2674.18	4321
2672.68	4318.5
2671.18	4318.5
2669.67	4297.5
2668.17	4314
2666.66	4256
2665.16	4280.5
2663.66	4312.5
2662.15	4260
2660.64	4241.5
2659.14	4261
2657.63	4253
2656.13	4193.5
2654.62	4210.5
2653.11	4207
2651.6	4174.5
2650.09	4191.5
2648.58	4186
2647.08	4186
2645.57	4216.5
2644.06	4198
2642.55	4163
2641.04	4102
2639.52	4164
2638.01	4146
2636.5	4105
2634.99	4109.5
2633.48	4083
2631.96	4075.5
2630.45	4049
2628.94	4024
2627.42	4047
2625.91	4081
2624.39	4038.5
2622.88	4029
2621.36	4022.5
2619.85	4041
2618.33	4064.5
2616.81	4014
2615.3	4017
2613.78	4011.5
2612.26	4005.5
2610.74	4015.5
2609.22	4057.5
2607.7	3998.5
2606.18	4020.5
2604.66	3991.5
2603.14	4003.5
2601.62	3935
2600.1	3919
2598.58	3916.5
2597.06	3896
2595.54	3898.5
2594.01	3897.5
2592.49	3898
2590.97	3895
2589.44	3887
2587.92	3869.5
2586.39	3826.5
2584.87	3850.5
2583.34	3835.5
2581.82	3844.5
2580.29	3809
2578.76	3844.5
2577.24	3807
2575.71	3821
2574.18	3796.5
2572.65	3842.5
2571.13	3800.5
2569.6	3783.5
2568.07	3737
2566.54	3768
2565.01	3777.5
2563.48	3767.5
2561.95	3774
2560.42	3783.5
2558.88	3739
2557.35	3727
2555.82	3743
2554.29	3739.5
2552.75	3671.5
2551.22	3702
2549.69	3692
2548.15	3689.5
2546.62	3687.5
2545.08	3690.5
2543.55	3660.5
2542.01	3638
2540.47	3623.5
2538.94	3655.5
2537.4	3631
2535.86	3619
2534.33	3575.5
2532.79	3579.5
2531.25	3558
2529.71	3563.5
2528.17	3546
2526.63	3567
2525.09	3521.5
2523.55	3545.5
2522.01	3498
2520.47	3497.5
2518.92	3488
2517.38	3497
2515.84	3512.5
2514.3	3450.5
2512.75	3453
2511.21	3492.5
2509.67	3447.5
2508.12	3414.5
2506.58	3414.5
2505.03	3426.5
2503.49	3413.5
2501.94	3401.5
2500.39	3379
2498.85	3373
2497.3	3401
2495.75	3372
2494.2	3309.5
2492.65	3344
2491.11	3327.5
2489.56	3287
2488.01	3278.5
2486.46	3264
2484.91	3253
2483.36	3235
2481.8	3254
2480.25	3232.5
2478.7	3222.5
2477.15	3223.5
2475.6	3211
2474.04	3211.5
2472.49	3155
2470.93	3162.5
2469.38	3146.5
2467.83	3152.5
2466.27	3069.5
2464.71	3140
2463.16	3091.5
2461.6	3123.5
2460.05	3076.5
2458.49	3089.5
2456.93	3070
2455.37	3056
2453.81	3036.5
2452.26	3072
2450.7	3026.5
2449.14	3009.5
2447.58	3036
2446.02	2979
2444.46	2965
2442.9	2959.5
2441.33	2932
2439.77	2967.5
2438.21	2928
2436.65	2915.5
2435.08	2937.5
2433.52	2880
2431.96	2936.5
2430.39	2914
2428.83	2906
2427.26	2870.5
2425.7	2887.5
2424.13	2887
2422.56	2867.5
2421	2822.5
2419.43	2869
2417.86	2845
2416.3	2826.5
2414.73	2809.5
2413.16	2839.5
2411.59	2813.5
2410.02	2803
2408.45	2822.5
2406.88	2774
2405.31	2806.5
2403.74	2744
2402.17	2775.5
2400.6	2785
2399.02	2797
2397.45	2822
2395.88	2793.5
2394.3	2739
2392.73	2708.5
2391.16	2725.5
2389.58	2759
2388.01	2761.5
2386.43	2718.5
2384.86	2733
2383.28	2687
2381.7	2699
2380.13	2701.5
2378.55	2699.5
2376.97	2745
2375.39	2717
2373.81	2686
2372.23	2673
2370.65	2701.5
2369.07	2675
2367.49	2680
2365.91	2646
2364.33	2643.5
2362.75	2647.5
2361.17	2592
2359.59	2603.5
2358.01	2646
2356.42	2609.5
2354.84	2625
2353.25	2596.5
2351.67	2612
2350.09	2548
2348.5	2583.5
2346.92	2593.5
2345.33	2582
2343.74	2575.5
2342.16	2556
2340.57	2609.5
2338.98	2550
2337.39	2540.5
2335.81	2557
2334.22	2524.5
2332.63	2523.5
2331.04	2540.5
2329.45	2567
2327.86	2555
2326.27	2525.5
2324.68	2510.5
2323.09	2496
2321.49	2485
2319.9	2505
2318.31	2441
2316.72	2487
2315.12	2463.5
2313.53	2412
2311.93	2442.5
2310.34	2418
2308.74	2412
2307.15	2408
2305.55	2410.5
2303.96	2395
2302.36	2365
2300.76	2366.5
2299.17	2346.5
2297.57	2376
2295.97	2344.5
2294.37	2358.5
2292.77	2336.5
2291.17	2314
2289.57	2323.5
2287.97	2299.5
2286.37	2297.5
2284.77	2306
2283.17	2286.5
2281.57	2289
2279.96	2274
2278.36	2303.5
2276.76	2280
2275.15	2269
2273.55	2256.5
2271.95	2278.5
2270.34	2231
2268.74	2239.5
2267.13	2231.5
2265.52	2220.5
2263.92	2201
2262.31	2203.5
2260.7	2187.5
2259.1	2175
2257.49	2171
2255.88	2180.5
2254.27	2158
2252.66	2204.5
2251.05	2171.5
2249.44	2141.5
2247.83	2170.5
2246.22	2155
2244.61	2150.5
2243	2168
2241.39	2147
2239.77	2147
2238.16	2129
2236.55	2118
2234.93	2090
2233.32	2097
2231.7	2104
2230.09	2059.5
2228.47	2040
2226.86	2045
2225.24	2027.5
2223.63	2012
2222.01	2008.5
2220.39	2035.5
2218.77	2023.5
2217.16	2023.5
2215.54	1992.5
2213.92	1989.5
2212.3	2002
2210.68	1978.5
2209.06	1942
2207.44	1995.5
2205.82	1959
2204.19	1948
2202.57	1953
2200.95	1947.5
2199.33	1944
2197.7	1937.5
2196.08	1906.5
2194.46	1920.5
2192.83	1909.5
2191.21	1896
2189.58	1879
2187.96	1894.5
2186.33	1897
2184.7	1904
2183.08	1867.5
2181.45	1880
2179.82	1888.5
2178.19	1876.5
2176.57	1856.5
2174.94	1842
2173.31	1861.5
2171.68	1840
2170.05	1824
2168.42	1813.5
2166.79	1813
2165.16	1810.5
2163.52	1804
2161.89	1799.5
2160.26	1787
2158.63	1806.5
2156.99	1805
2155.36	1777
2153.73	1771
2152.09	1757
2150.46	1768
2148.82	1750.5
2147.18	1728.5
2145.55	1719
2143.91	1741.5
2142.27	1703.5
2140.64	1693.5
2139	1693
2137.36	1726
2135.72	1699
2134.08	1701
2132.44	1650
2130.8	1656.5
2129.16	1651
2127.52	1641.5
2125.88	1633.5
2124.24	1628
2122.6	1571
2120.95	1627
2119.31	1592
2117.67	1585
2116.02	1609.5
2114.38	1553.5
2112.74	1608
2111.09	1556
2109.45	1568.5
2107.8	1553
2106.15	1543.5
2104.51	1550
2102.86	1542.5
2101.21	1534.5
2099.56	1551
2097.92	1516
2096.27	1549
2094.62	1495
2092.97	1522.5
2091.32	1515
2089.67	1515.5
2088.02	1511
2086.37	1510.5
2084.72	1500.5
2083.06	1496
2081.41	1469
2079.76	1475.5
2078.1	1477
2076.45	1460.5
2074.8	1481
2073.14	1475
2071.49	1485.5
2069.83	1495.5
2068.18	1466.5
2066.52	1478
2064.86	1453.5
2063.21	1452.5
2061.55	1452.5
2059.89	1444.5
2058.23	1447
2056.57	1440.5
2054.92	1430
2053.26	1409
2051.6	1420.5
2049.94	1422.5
2048.27	1415
2046.61	1413.5
2044.95	1413.5
2043.29	1388.5
2041.63	1370
2039.97	1355.5
2038.3	1390
2036.64	1363.5
2034.97	1355
2033.31	1344.5
2031.64	1377.5
2029.98	1330.5
2028.31	1329.5
2026.65	1323
2024.98	1326
2023.31	1326
2021.65	1298.5
2019.98	1293
2018.31	1293.5
2016.64	1292
2014.97	1293
2013.3	1282.5
2011.63	1274.5
2009.96	1276.5
2008.29	1250.5
2006.62	1255.5
2004.95	1262
2003.28	1242
2001.6	1262
1999.93	1278.5
1998.26	1274.5
1996.58	1250.5
1994.91	1240
1993.24	1242
1991.56	1220
1989.89	1234
1988.21	1211.5
1986.53	1208.5
1984.86	1198
1983.18	1184
1981.5	1197.5
1979.82	1197.5
1978.15	1178.5
1976.47	1205.5
1974.79	1203.5
1973.11	1189
1971.43	1181.5
1969.75	1176
1968.07	1151
1966.38	1159
1964.7	1156.5
1963.02	1144.5
1961.34	1133.5
1959.66	1115
1957.97	1149.5
1956.29	1124.5
1954.6	1124
1952.92	1131.5
1951.23	1119
1949.55	1123
1947.86	1128
1946.18	1122
1944.49	1105.5
1942.8	1107.5
1941.11	1101
1939.43	1086.5
1937.74	1061.5
1936.05	1092
1934.36	1057
1932.67	1086
1930.98	1071.5
1929.29	1070
1927.6	1042
1925.91	1064
1924.21	1054.5
1922.52	1043.5
1920.83	1041.5
1919.14	1047
1917.44	1039.5
1915.75	1013
1914.05	1023.5
1912.36	1010
1910.66	996
1908.97	1002
1907.27	1016
1905.58	986
1903.88	993
1902.18	984.5
1900.48	996
1898.79	976
1897.09	975
1895.39	972
1893.69	978.5
1891.99	958.5
1890.29	955.5
1888.59	935
1886.89	931.5
1885.18	936.5
1883.48	935.5
1881.78	936
1880.08	927
1878.37	910.5
1876.67	914.5
1874.96	922
1873.26	897
1871.55	890
1869.85	902.5
1868.14	889.5
1866.44	881
1864.73	879
1863.02	885.5
1861.32	870.5
1859.61	859.5
1857.9	887.5
1856.19	865
1854.48	899.5
1852.77	864.5
1851.06	844
1849.35	843
1847.64	862
1845.93	860
1844.21	870
1842.5	843.5
1840.79	842
1839.08	830
1837.36	865
1835.65	842
1833.93	803
1832.22	838
1830.5	815
1828.79	827
1827.07	834.5
1825.36	812
1823.64	812.5
1821.92	820.5
1820.2	796.5
1818.48	785
1816.77	798
1815.05	790
1813.33	797
1811.61	792.5
1809.89	777
1808.16	777
1806.44	772
1804.72	773
1803	786.5
1801.28	778.5
1799.55	757.5
1797.83	737.5
1796.11	754
1794.38	736
1792.66	740
1790.93	768.5
1789.21	741
1787.48	742.5
1785.75	733
1784.03	738.5
1782.3	740.5
1780.57	735.5
1778.84	736
1777.11	741.5
1775.38	729
1773.66	724.5
1771.93	721
1770.19	737.5
1768.46	744
1766.73	728.5
1765	732.5
1763.27	712.5
1761.54	728.5
1759.8	763.5
1758.07	752.5
1756.34	771
1754.6	779
1752.87	781
1751.13	775
1749.4	779
1747.66	800.5
1745.92	792
1744.19	793
1742.45	788
1740.71	791.5
1738.97	773
1737.23	745.5
1735.49	750
1733.75	729
1732.01	733.5
1730.27	731
1728.53	702.5
1726.79	700.5
1725.05	687
1723.31	691
1721.57	675
1719.82	668.5
1718.08	670
1716.34	658
1714.59	663
1712.85	671.5
1711.1	651
1709.36	649.5
1707.61	647
1705.86	660.5
1704.12	649
1702.37	649
1700.62	640
1698.87	643
1697.12	624
1695.37	624.5
1693.62	624.5
1691.87	618.5
1690.12	643
1688.37	623.5
1686.62	609.5
1684.87	623
1683.12	617.5
1681.36	629.5
1679.61	636
1677.86	635.5
1676.1	630
1674.35	629.5
1672.59	686.5
1670.84	677.5
1669.08	688.5
1667.33	722
1665.57	762
1663.81	799.5
1662.06	867.5
1660.3	909.5
1658.54	904.5
1656.78	942.5
1655.02	916
1653.26	878.5
1651.5	857.5
1649.74	811
1647.98	751
1646.22	705.5
1644.46	688
1642.7	657
1640.93	647.5
1639.17	645.5
1637.41	623
1635.64	615
1633.88	596
1632.11	581
1630.35	595
1628.58	576.5
1626.81	570.5
1625.05	563
1623.28	558.5
1621.51	558
1619.75	549
1617.98	564
1616.21	548.5
1614.44	556.5
1612.67	548.5
1610.9	537.5
1609.13	528.5
1607.36	532.5
1605.58	534
1603.81	551.5
1602.04	532.5
1600.27	521.5
1598.49	530
1596.72	535
1594.95	526
1593.17	533
1591.4	517.5
1589.62	512.5
1587.84	511.5
1586.07	532.5
1584.29	521
1582.51	519.5
1580.74	527
1578.96	502
1577.18	521
1575.4	525.5
1573.62	517.5
1571.84	515.5
1570.06	509.5
1568.28	514
1566.5	513.5
1564.72	516
1562.93	497
1561.15	506
1559.37	510
1557.58	509
1555.8	507
1554.02	501
1552.23	488.5
1550.45	489
1548.66	497.5
1546.87	499.5
1545.09	493
1543.3	486.5
1541.51	493
1539.72	482.5
1537.94	476
1536.15	468.5
1534.36	495.5
1532.57	478
1530.78	477.5
1528.99	480.5
1527.2	488.5
1525.4	490.5
1523.61	483
1521.82	481.5
1520.03	478
1518.23	485
1516.44	458
1514.65	474
1512.85	468
1511.06	496
1509.26	478.5
1507.46	490.5
1505.67	487
1503.87	496
1502.07	501
1500.28	502.5
1498.48	501.5
1496.68	487.5
1494.88	510.5
1493.08	522.5
1491.28	531
1489.48	519
1487.68	538.5
1485.88	551.5
1484.08	565
1482.27	586.5
1480.47	593
1478.67	643.5
1476.86	638
1475.06	688.5
1473.25	719.5
1471.45	772.5
1469.64	815.5
1467.84	882
1466.03	909
1464.23	945
1462.42	1018
1460.61	1060
1458.8	1068
1456.99	1121.5
1455.18	1166.5
1453.37	1177
1451.56	1209.5
1449.75	1245
1447.94	1316.5
1446.13	1349.5
1444.32	1366
1442.51	1392
1440.7	1423.5
1438.88	1391.5
1437.07	1317
1435.26	1220.5
1433.44	1103
1431.63	984.5
1429.81	891
1427.99	816
1426.18	742.5
1424.36	701.5
1422.54	677
1420.73	651.5
1418.91	621.5
1417.09	600
1415.27	574.5
1413.45	544
1411.63	534.5
1409.81	527
1407.99	518
1406.17	494
1404.35	504.5
1402.53	479
1400.7	477.5
1398.88	478
1397.06	466
1395.23	464.5
1393.41	455
1391.58	437.5
1389.76	453
1387.93	462.5
1386.11	453
1384.28	462
1382.45	453
1380.62	456
1378.8	463
1376.97	457
1375.14	459
1373.31	477
1371.48	487
1369.65	501.5
1367.82	484.5
1365.99	485.5
1364.16	482.5
1362.32	486
1360.49	472
1358.66	466
1356.82	474.5
1354.99	472.5
1353.16	484.5
1351.32	477
1349.48	462
1347.65	480
1345.81	472.5
1343.98	493.5
1342.14	486
1340.3	489
1338.46	509
1336.62	501
1334.79	503
1332.95	520
1331.11	533.5
1329.27	553
1327.42	577
1325.58	603.5
1323.74	626
1321.9	641.5
1320.06	675.5
1318.21	705.5
1316.37	751
1314.53	784
1312.68	805
1310.84	875
1308.99	945.5
1307.15	1003.5
1305.3	1033.5
1303.45	1084
1301.61	1120.5
1299.76	1092.5
1297.91	1078
1296.06	1030
1294.21	932
1292.36	871.5
1290.51	796
1288.66	759.5
1286.81	736.5
1284.96	691
1283.11	709.5
1281.26	707.5
1279.4	701
1277.55	719
1275.7	699.5
1273.84	720
1271.99	731
1270.13	738
1268.28	716
1266.42	715
1264.56	708
1262.71	697
1260.85	703
1258.99	668
1257.13	681.5
1255.27	645
1253.41	614.5
1251.56	599
1249.7	572.5
1247.83	559.5
1245.97	542.5
1244.11	531.5
1242.25	509.5
1240.39	499.5
1238.52	493.5
1236.66	472
1234.8	474.5
1232.93	469
1231.07	452.5
1229.2	452
1227.34	442.5
1225.47	442.5
1223.6	450
1221.74	412.5
1219.87	426.5
1218	414.5
1216.13	434
1214.26	429.5
1212.39	418
1210.53	413
1208.65	422.5
1206.78	416.5
1204.91	406.5
1203.04	396
1201.17	397.5
1199.3	416.5
1197.42	408
1195.55	406
1193.68	411.5
1191.8	403.5
1189.93	403.5
1188.05	413.5
1186.17	403
1184.3	415.5
1182.42	419.5
1180.54	417
1178.67	414
1176.79	402
1174.91	411
1173.03	414.5
1171.15	415.5
1169.27	396
1167.39	400
1165.51	409.5
1163.63	406
1161.75	423.5
1159.86	412
1157.98	411.5
1156.1	420.5
1154.21	418.5
1152.33	413
1150.44	410
1148.56	424.5
1146.67	423.5
1144.79	423.5
1142.9	443
1141.01	452.5
1139.12	461.5
1137.24	469
1135.35	499
1133.46	534
1131.57	588
1129.68	623.5
1127.79	606.5
1125.9	606
1124.01	594.5
1122.12	588.5
1120.22	567.5
1118.33	564.5
1116.44	556
1114.54	571.5
1112.65	539
1110.75	552
1108.86	548
1106.96	571.5
1105.07	586
1103.17	602.5
1101.27	634
1099.38	637.5
1097.48	683
1095.58	708.5
1093.68	704.5
1091.78	749.5
1089.88	767
1087.98	780.5
1086.08	793.5
1084.18	792
1082.28	825.5
1080.38	795
1078.47	815
1076.57	790.5
1074.67	770
1072.76	770.5
1070.86	771.5
1068.95	808
1067.05	819.5
1065.14	834.5
1063.24	839
1061.33	818.5
1059.42	761
1057.51	697.5
1055.6	658
1053.7	641
1051.79	622
1049.88	603.5
1047.97	568
1046.06	594.5
1044.14	581.5
1042.23	575
1040.32	581
1038.41	572
1036.5	560
1034.58	571.5
1032.67	559
1030.75	546.5
1028.84	557.5
1026.92	559.5
1025.01	572
1023.09	548
1021.17	552.5
1019.26	554
1017.34	535
1015.42	553.5
1013.5	551.5
1011.58	527
1009.66	526.5
1007.74	505
1005.82	494
1003.9	516
1001.98	520
1000.06	507.5
998.134	502.5
996.212	538.5
994.288	518
992.364	533
990.44	528
988.515	540.5
986.589	546.5
984.663	576
982.737	573
980.81	598
978.883	615
976.955	652
975.027	634
973.098	673.5
971.169	667.5
969.239	653.5
967.308	663.5
965.378	659
963.447	652.5
961.516	646
959.583	628.5
957.65	649
955.718	650
953.784	639.5
951.85	652
949.916	655.5
947.981	680.5
946.045	682.5
944.109	697
942.173	707
940.236	697.5
938.298	691
936.36	684.5
934.422	675.5
932.484	653
930.544	646.5
928.604	619.5
926.664	617.5
924.724	600.5
922.782	629
920.84	614.5
918.898	640
916.955	614.5
915.012	624.5
913.068	643.5
911.124	623
909.18	635
907.235	650.5
905.289	633.5
903.343	638
901.397	637
899.45	652.5
897.502	680
895.554	714
893.605	720.5
891.657	741.5
889.707	756
887.758	753
885.807	732
883.856	744.5
881.905	729
879.953	725.5
878.001	747
876.048	759
874.094	783.5
872.14	763
870.186	777.5
868.232	747
866.276	767.5
864.321	756.5
862.365	760
860.408	725.5
858.451	724
856.493	715.5
854.535	718
852.576	719
850.617	714
848.658	724.5
846.698	718.5
844.737	706.5
842.776	685.5
840.814	679
838.852	664.5
836.89	665.5
834.927	643
832.963	618.5
830.999	632.5
829.035	601.5
827.07	581.5
825.105	564
823.139	573.5
821.172	543
819.206	526.5
817.238	529
815.27	529
813.301	510
811.333	501
809.363	513
807.394	484
805.424	472.5
803.453	482.5
801.482	456.5
799.509	439
797.538	447.5
795.565	434
793.592	440.5
791.618	420.5
789.643	427.5
787.669	412.5
785.693	419.5
783.718	424
781.742	417
779.765	433.5
777.788	422.5
775.811	423
773.832	428.5
771.853	421
769.875	414.5
767.895	420.5
765.915	416
763.934	432.5
761.953	428.5
759.972	422
757.99	413.5
756.007	420.5
754.024	401
752.041	402
750.056	406
748.072	431.5
746.087	418.5
744.102	419.5
742.116	415
740.13	450
738.143	436.5
736.155	430
734.167	433
732.179	447.5
730.19	438
728.2	439.5
726.21	447.5
724.22	460.5
722.229	431.5
720.237	423
718.246	421
716.253	425
714.26	403.5
712.267	422.5
710.273	395
708.279	402.5
706.284	408
704.289	400
702.293	387.5
700.296	394
698.3	405
696.303	405
694.305	400
692.307	388.5
690.307	392
688.308	408.5
686.309	379.5
684.308	381
682.308	384
680.306	386
678.304	387.5
676.302	395
674.3	406
672.296	400
670.293	398
668.289	399
666.284	420.5
664.278	386
662.273	406
660.266	413.5
658.26	410
656.252	401
654.244	399
652.237	416.5
650.227	408
648.218	417
646.209	396
644.198	412
642.188	413
640.177	418.5
638.165	439
636.153	437.5
634.14	420
632.128	435.5
630.113	452
628.099	445
626.085	455
624.07	463
622.054	443
620.038	443.5
618.021	465.5
616.004	462.5
613.986	472.5
611.968	465
609.949	482
607.93	485.5
605.911	478.5
603.891	497
601.87	489
599.848	467
597.827	480
595.805	485
593.782	460
591.759	475.5
589.735	456
587.711	450.5
585.687	465
583.661	456.5
581.636	461
579.609	455.5
577.583	459.5
575.555	432
573.527	439.5
571.5	453
569.471	460
567.441	455
565.412	447.5
563.382	455.5
561.351	467.5
559.32	488
557.289	479
555.257	480
553.223	488
551.19	489
549.157	524.5
547.122	523.5
545.088	546.5
543.053	547.5
541.017	606.5
538.981	612
536.943	664
534.907	770.5
532.869	915.5
530.831	1128
528.792	1530
526.752	2238.5
524.713	3356
522.673	4340.5
520.632	4558
518.591	3915.5
516.549	2862.5
514.507	2022.5
512.464	1418.5
510.42	1045.5
508.377	846.5
506.332	730.5
504.288	666
502.242	643.5
500.196	623
498.15	610.5
496.104	578
494.056	596
492.008	584
489.96	577.5
487.911	554
485.862	555
483.812	564.5
481.761	551
479.71	563.5
477.659	557
475.607	563.5
473.555	571.5
471.502	545
469.448	552.5
467.395	553.5
465.34	541
463.285	549.5
461.23	552.5
459.174	551.5
457.118	547
455.061	569.5
453.003	541
450.945	579.5
448.887	581
446.828	574.5
444.768	593
442.708	572.5
440.647	596.5
438.587	571.5
436.525	604
434.463	603.5
432.4	611
430.337	593
428.274	610
426.21	595
424.145	602.5
422.079	609
420.014	628.5
417.948	618
415.882	624.5
413.814	617.5
411.746	638
409.679	641.5
407.609	614.5
405.54	626
403.47	636
401.401	634.5
399.329	643.5
397.258	637.5
395.187	631
393.114	647.5
391.041	646.5
388.968	641.5
386.895	642.5
384.82	641
382.745	651.5
380.67	632.5
378.594	663.5
376.517	654
374.44	645
372.363	663
370.286	656.5
368.207	678.5
366.128	651
364.049	668.5
361.969	676
359.888	678.5
357.807	690.5
355.725	691
353.643	703
351.561	689.5
349.477	694.5
347.394	685
345.31	695
343.226	707.5
341.141	706
339.055	722
336.968	733.5
334.882	740.5
332.795	736.5
330.707	733.5
328.618	760
326.53	743
324.44	752.5
322.351	764.5
320.26	756.5
318.17	786
316.078	808.5
313.987	850
311.895	833
309.802	873.5
307.708	874
305.614	925
303.52	910
301.425	912
299.329	912
297.233	897.5
295.137	884.5
293.039	893
290.942	874
288.844	877
286.745	865
284.647	860.5
282.546	870
280.446	890
278.346	901
276.245	885.5
274.143	889.5
272.041	908
269.939	908.5
267.835	923.5
265.731	927.5
263.627	930
261.522	963.5
259.417	944.5
257.311	957
255.204	977
253.098	969.5
250.99	992
248.882	972
246.774	991
244.664	1015
242.555	1021
240.445	1001
238.334	1030
236.223	1041
234.112	1060
232	1080.5
229.888	1065
227.775	1078.5
225.661	1115.5
223.546	1108.5
221.431	1116
219.316	1110.5
217.201	1129.5
215.084	1106
212.967	1128.5
210.85	1112.5
208.732	1148.5
206.614	1153
204.495	1158.5
202.375	1130
200.256	1139
198.135	1122
196.014	1135
193.893	1149.5
191.771	1133
189.648	1134.5
187.525	1138.5
185.401	1136.5
183.277	1135
181.152	1116
179.027	1134
176.901	1150
174.775	1158.5
172.648	1164
170.521	1168
168.393	1171
166.265	1176.5
164.136	1220
162.007	1226
159.876	1242.5
157.746	1243.5
155.615	1273.5
153.483	1302.5
151.351	1274
149.219	1355
147.086	1387.5
144.952	1427
142.818	1444.5
140.684	1526.5
138.548	1494
136.413	1574
134.276	1604.5
132.139	1691.5
130.002	1678.5
127.864	1721
125.725	1824.5
123.587	1861.5
121.447	1925
119.307	1951
117.166	2008
115.026	2122
112.885	2196.5
110.743	2243
108.6	2290
106.456	2351
104.313	2367
102.169	2415
100.023	2298
97.8789	2212
95.7328	2044
93.5869	1808
91.4392	1518.5
89.2919	1248
87.1447	1028
84.9959	799
