3528.51	86
3527.23	94.5
3525.95	92
3524.67	104.5
3523.39	105
3522.1	102
3520.82	110.5
3519.54	106
3518.26	105
3516.97	106.5
3515.69	111
3514.4	114.5
3513.12	110
3511.84	112
3510.55	99
3509.26	111.5
3507.98	112.5
3506.69	112
3505.41	111
3504.12	116.5
3502.83	121
3501.54	119
3500.26	112.5
3498.97	125.5
3497.68	126
3496.39	122.5
3495.1	128.5
3493.81	124
3492.52	130.5
3491.23	137
3489.94	133.5
3488.65	129.5
3487.36	137.5
3486.07	146
3484.78	145.5
3483.49	152.5
3482.19	145.5
3480.9	161
3479.61	161.5
3478.31	153.5
3477.02	154
3475.73	157.5
3474.43	152.5
3473.14	165
3471.84	165
3470.54	160
3469.25	163.5
3467.95	167.5
3466.66	177.5
3465.36	179.5
3464.06	166.5
3462.76	165
3461.46	168
3460.17	168
3458.87	175
3457.57	186
3456.27	179.5
3454.97	178
3453.67	184
3452.37	195
3451.07	186
3449.77	180.5
3448.47	193
3447.16	192
3445.86	194.5
3444.56	204
3443.26	196
3441.95	205
3440.65	216.5
3439.35	207.5
3438.04	214
3436.74	221.5
3435.43	227.5
3434.13	226.5
3432.82	243
3431.52	231.5
3430.21	241.5
3428.9	241.5
3427.6	256
3426.29	241.5
3424.98	253.5
3423.67	252.5
3422.36	264.5
3421.06	270
3419.75	268
3418.44	281
3417.13	291.5
3415.82	282
3414.51	282.5
3413.2	290
3411.88	293.5
3410.57	305
3409.26	288.5
3407.95	307
3406.64	312
3405.32	298
3404.01	304.5
3402.7	311
3401.38	310
3400.07	307
3398.75	327.5
3397.44	310
3396.12	324
3394.81	325.5
3393.49	327
3392.18	328
3390.86	328
3389.54	345
3388.23	337.5
3386.91	343
3385.59	345
3384.27	357
3382.95	361.5
3381.63	358
3380.31	362
3378.99	360
3377.67	376
3376.35	373
3375.03	384.5
3373.71	377.5
3372.39	388
3371.07	387.5
3369.75	388
3368.42	390
3367.1	394
3365.78	383
3364.45	393.5
3363.13	396.5
3361.81	413.5
3360.48	410.5
3359.16	415
3357.83	399.5
3356.51	409.5
3355.18	420
3353.85	402.5
3352.53	428.5
3351.2	401.5
3349.87	408.5
3348.54	431
3347.22	415
3345.89	443
3344.56	412
3343.23	442
3341.9	417.5
3340.57	439.5
3339.24	434
3337.91	432
3336.58	430
3335.25	424
3333.92	437
3332.58	439
3331.25	436
3329.92	456.5
3328.59	454.5
3327.25	450.5
3325.92	440
3324.58	437.5
3323.25	449.5
3321.92	444.5
3320.58	475
3319.25	459
3317.91	466.5
3316.57	452
3315.24	480.5
3313.9	473
3312.56	457
3311.23	458.5
3309.89	475.5
3308.55	483
3307.21	483.5
3305.87	484
3304.53	480.5
3303.19	507
3301.85	490
3300.51	505.5
3299.17	504.5
3297.83	504.5
3296.49	496
3295.15	507
3293.81	507.5
3292.46	509.5
3291.12	506
3289.78	510.5
3288.43	518
3287.09	508.5
3285.75	521.5
3284.4	515
3283.06	503
3281.71	531
3280.37	522
3279.02	520.5
3277.67	531
3276.33	524
3274.98	523
3273.63	532.5
3272.28	534
3270.94	553
3269.59	558
3268.24	561
3266.89	571
3265.54	569.5
3264.19	578
3262.84	591
3261.49	590
3260.14	613.5
3258.79	616.5
3257.44	619
3256.08	644.5
3254.73	636
3253.38	658.5
3252.03	665
3250.67	695
3249.32	699.5
3247.96	729
3246.61	755.5
3245.26	776
3243.9	765
3242.54	801
3241.19	830
3239.83	841
3238.48	865.5
3237.12	894.5
3235.76	889.5
3234.41	906.5
3233.05	953
3231.69	972.5
3230.33	969
3228.97	1020
3227.61	1016.5
3226.25	1044
3224.89	1070.5
3223.53	1082.5
3222.17	1106
3220.81	1114.5
3219.45	1153
3218.09	1142.5
3216.72	1146
3215.36	1161.5
3214	1170
3212.63	1180
3211.27	1194.5
3209.91	1211
3208.54	1200.5
3207.18	1231
3205.81	1236
3204.45	1238.5
3203.08	1213.5
3201.71	1221.5
3200.35	1271
3198.98	1254.5
3197.61	1283.5
3196.25	1265
3194.88	1288.5
3193.51	1291.5
3192.14	1301
3190.77	1306
3189.4	1321
3188.03	1300
3186.66	1336.5
3185.29	1329.5
3183.92	1331.5
3182.55	1363.5
3181.18	1342
3179.81	1338.5
3178.44	1365.5
3177.06	1372.5
3175.69	1378
3174.32	1387.5
3172.94	1411
3171.57	1435
3170.2	1417.5
3168.82	1440
3167.45	1438
3166.07	1439.5
3164.69	1453
3163.32	1496.5
3161.94	1486
3160.56	1465
3159.19	1537
3157.81	1503.5
3156.43	1515.5
3155.05	1533.5
3153.67	1552.5
3152.3	1552.5
3150.92	1577
3149.54	1565
3148.16	1603.5
3146.78	1620.5
3145.4	1621.5
3144.01	1619.5
3142.63	1629.5
3141.25	1614.5
3139.87	1668.5
3138.49	1676
3137.1	1660.5
3135.72	1691.5
3134.34	1698.5
3132.95	1708
3131.57	1725.5
3130.18	1738.5
3128.8	1758
3127.41	1759
3126.03	1741
3124.64	1774.5
3123.25	1775.5
3121.87	1785.5
3120.48	1840
3119.09	1821.5
3117.7	1866.5
3116.32	1806
3114.93	1833
3113.54	1841.5
3112.15	1839.5
3110.76	1869.5
3109.37	1895.5
3107.98	1875.5
3106.59	1917
3105.2	1882
3103.8	1914.5
3102.41	1938
3101.02	1946.5
3099.63	1945
3098.23	1941
3096.84	1965
3095.45	1956
3094.05	1937.5
3092.66	1966.5
3091.26	1980.5
3089.87	1968.5
3088.47	1989.5
3087.08	2001.5
3085.68	2009.5
3084.28	2003
3082.89	2025
3081.49	2016
3080.09	2030.5
3078.69	2042.5
3077.3	2018.5
3075.9	2039
3074.5	2034.5
3073.1	2044.5
3071.7	2063.5
3070.3	2066
3068.9	2076
3067.5	2065
3066.09	2051.5
3064.69	2065.5
3063.29	2057.5
3061.89	2117.5
3060.48	2128
3059.08	2123.5
3057.68	2102
3056.27	2115.5
3054.87	2126
3053.46	2162
3052.06	2094
3050.65	2146
3049.25	2131
3047.84	2168.5
3046.44	2178.5
3045.03	2174.5
3043.62	2200
3042.21	2166.5
3040.81	2173.5
3039.4	2210
3037.99	2213
3036.58	2210.5
3035.17	2262.5
3033.76	2237.5
3032.35	2215
3030.94	2256.5
3029.53	2243.5
3028.12	2231.5
3026.71	2223.5
3025.29	2268
3023.88	2273.5
3022.47	2284
3021.06	2224
3019.64	2271.5
3018.23	2308
3016.82	2288
3015.4	2296
3013.99	2282.5
3012.57	2282
3011.15	2281.5
3009.74	2292.5
3008.32	2340
3006.91	2330
3005.49	2337
3004.07	2339.5
3002.65	2395
3001.24	2337
2999.82	2374.5
2998.4	2391.5
2996.98	2373
2995.56	2396
2994.14	2378
2992.72	2434
2991.3	2418
2989.88	2445.5
2988.46	2413.5
2987.03	2424.5
2985.61	2448
2984.19	2474.5
2982.77	2506
2981.34	2451.5
2979.92	2483.5
2978.49	2522
2977.07	2532
2975.65	2537
2974.22	2556.5
2972.79	2567
2971.37	2593.5
2969.94	2620.5
2968.52	2630.5
2967.09	2642
2965.66	2622
2964.23	2663
2962.81	2656
2961.38	2635
2959.95	2668.5
2958.52	2708.5
2957.09	2689.5
2955.66	2705
2954.23	2704
2952.8	2709
2951.37	2734.5
2949.94	2700.5
2948.5	2765
2947.07	2756
2945.64	2764.5
2944.21	2765
2942.77	2782
2941.34	2814.5
2939.91	2822
2938.47	2822
2937.04	2795.5
2935.6	2861.5
2934.17	2898.5
2932.73	2898
2931.29	2884.5
2929.86	2904.5
2928.42	2887
2926.98	2972.5
2925.55	2952.5
2924.11	2969
2922.67	2950.5
2921.23	2985
2919.79	2987
2918.35	3012.5
2916.91	3022.5
2915.47	3019.5
2914.03	3027
2912.59	2964
2911.15	3014
2909.71	3017.5
2908.26	3056
2906.82	3054.5
2905.38	3041.5
2903.94	3082.5
2902.49	3111
2901.05	3092
2899.6	3149
2898.16	3096
2896.71	3086
2895.27	3153
2893.82	3131
2892.38	3142.5
2890.93	3140
2889.48	3132.5
2888.03	3135
2886.59	3167.5
2885.14	3186
2883.69	3153
2882.24	3129
2880.79	3135
2879.34	3161.5
2877.89	3165
2876.44	3169
2874.99	3161
2873.54	3155
2872.09	3148.5
2870.64	3165.5
2869.18	3164.5
2867.73	3144
2866.28	3194
2864.83	3168.5
2863.37	3176.5
2861.92	3143.5
2860.46	3170.5
2859.01	3166
2857.55	3174
2856.1	3220
2854.64	3167.5
2853.19	3155
2851.73	3166
2850.27	3180
2848.81	3175
2847.36	3134.5
2845.9	3119.5
2844.44	3144
2842.98	3126.5
2841.52	3119
2840.06	3097.5
2838.6	3021.5
2837.14	3037.5
2835.68	3042.5
2834.22	3005.5
2832.76	3011
2831.3	2959
2829.83	2963.5
2828.37	2950.5
2826.91	2963
2825.44	2958.5
2823.98	2908.5
2822.52	2913.5
2821.05	2901
2819.59	2859
2818.12	2868
2816.66	2866
2815.19	2868
2813.72	2860
2812.26	2830.5
2810.79	2839.5
2809.32	2857
2807.85	2814
2806.38	2808
2804.92	2832
2803.45	2809.5
2801.98	2792
2800.51	2820
2799.04	2776
2797.57	2786
2796.1	2789.5
2794.62	2743
2793.15	2804.5
2791.68	2771.5
2790.21	2814
2788.73	2804.5
2787.26	2783.5
2785.79	2817
2784.31	2792.5
2782.84	2764
2781.36	2799
2779.89	2801
2778.41	2774.5
2776.94	2809.5
2775.46	2788
2773.99	2794
2772.51	2790.5
2771.03	2807.5
2769.55	2814.5
2768.07	2827
2766.6	2846
2765.12	2818.5
2763.64	2852.5
2762.16	2826
2760.68	2851
2759.2	2826
2757.72	2845
2756.24	2831.5
2754.75	2805.5
2753.27	2840.5
2751.79	2830.5
2750.31	2810.5
2748.82	2823.5
2747.34	2826.5
2745.86	2804.5
2744.37	2843.5
2742.89	2832
2741.4	2789
2739.92	2817.5
2738.43	2809.5
2736.94	2829.5
2735.46	2827
2733.97	2829.5
2732.48	2819.5
2731	2812.5
2729.51	2792
2728.02	2821
2726.53	2798.5
2725.04	2790.5
2723.55	2808.5
2722.06	2800
2720.57	2809
2719.08	2792.5
2717.59	2809
2716.1	2820.5
2714.61	2775.5
2713.11	2794.5
2711.62	2782
2710.13	2813.5
2708.64	2838.5
2707.14	2779.5
2705.65	2806
2704.15	2750.5
2702.66	2734.5
2701.16	2764.5
2699.67	2717.5
2698.17	2758
2696.67	2753
2695.18	2730.5
2693.68	2770
2692.18	2772
2690.69	2754.5
2689.19	2722
2687.69	2759.5
2686.19	2730
2684.69	2720
2683.19	2699.5
2681.69	2707.5
2680.19	2752.5
2678.69	2678.5
2677.19	2686.5
2675.68	2702.5
2674.18	2694.5
2672.68	2707
2671.18	2703
2669.67	2684
2668.17	2675.5
2666.66	2681
2665.16	2668.5
2663.66	2667.5
2662.15	2670.5
2660.64	2674
2659.14	2686.5
2657.63	2657
2656.13	2673
2654.62	2645
2653.11	2648
2651.6	2630.5
2650.09	2646.5
2648.58	2618
2647.08	2618.5
2645.57	2586.5
2644.06	2573.5
2642.55	2591.5
2641.04	2618
2639.52	2578.5
2638.01	2595
2636.5	2558.5
2634.99	2560
2633.48	2580
2631.96	2569
2630.45	2535
2628.94	2535
2627.42	2539.5
2625.91	2524.5
2624.39	2527
2622.88	2520
2621.36	2507
2619.85	2529
2618.33	2522
2616.81	2528.5
2615.3	2514.5
2613.78	2494
2612.26	2485.5
2610.74	2505
2609.22	2518
2607.7	2483.5
2606.18	2523
2604.66	2499.5
2603.14	2488.5
2601.62	2451.5
2600.1	2444
2598.58	2474
2597.06	2445.5
2595.54	2419
2594.01	2443.5
2592.49	2453
2590.97	2410.5
2589.44	2400
2587.92	2377
2586.39	2396.5
2584.87	2418
2583.34	2423.5
2581.82	2399
2580.29	2400.5
2578.76	2386
2577.24	2410.5
2575.71	2395
2574.18	2391.5
2572.65	2374
2571.13	2363.5
2569.6	2389.5
2568.07	2361
2566.54	2360.5
2565.01	2365.5
2563.48	2372.5
2561.95	2358
2560.42	2344.5
2558.88	2395
2557.35	2348.5
2555.82	2358
2554.29	2300.5
2552.75	2316
2551.22	2330
2549.69	2322.5
2548.15	2300
2546.62	2296
2545.08	2325
2543.55	2294.5
2542.01	2296.5
2540.47	2264.5
2538.94	2278
2537.4	2268.5
2535.86	2257
2534.33	2259
2532.79	2247.5
2531.25	2229
2529.71	2226
2528.17	2254
2526.63	2228.5
2525.09	2227
2523.55	2213
2522.01	2213
2520.47	2178.5
2518.92	2187
2517.38	2152
2515.84	2195
2514.3	2163.5
2512.75	2193
2511.21	2180.5
2509.67	2156.5
2508.12	2159
2506.58	2164.5
2505.03	2144
2503.49	2121.5
2501.94	2130.5
2500.39	2151.5
2498.85	2110.5
2497.3	2091
2495.75	2104
2494.2	2095
2492.65	2097
2491.11	2074.5
2489.56	2051
2488.01	2069
2486.46	2070.5
2484.91	2031.5
2483.36	2033.5
2481.8	2012
2480.25	2018.5
2478.7	2023
2477.15	2034
2475.6	1985
2474.04	2000
2472.49	1976
2470.93	1971
2469.38	1982.5
2467.83	1986
2466.27	1962
2464.71	1956.5
2463.16	1945.5
2461.6	1955.5
2460.05	1952
2458.49	1931
2456.93	1916.5
2455.37	1900.5
2453.81	1903
2452.26	1889
2450.7	1862.5
2449.14	1857.5
2447.58	1864.5
2446.02	1863
2444.46	1862.5
2442.9	1854.5
2441.33	1845.5
2439.77	1855.5
2438.21	1844.5
2436.65	1838.5
2435.08	1817.5
2433.52	1813.5
2431.96	1849.5
2430.39	1814
2428.83	1807.5
2427.26	1829
2425.7	1801
2424.13	1793.5
2422.56	1808
2421	1782
2419.43	1764
2417.86	1754.5
2416.3	1778
2414.73	1759.5
2413.16	1778
2411.59	1759
2410.02	1758
2408.45	1768
2406.88	1745.5
2405.31	1741
2403.74	1762
2402.17	1736
2400.6	1737.5
2399.02	1757
2397.45	1742.5
2395.88	1723.5
2394.3	1739.5
2392.73	1699.5
2391.16	1736
2389.58	1719.5
2388.01	1707.5
2386.43	1718.5
2384.86	1724.5
2383.28	1688
2381.7	1689
2380.13	1698.5
2378.55	1682
2376.97	1678.5
2375.39	1703
2373.81	1677.5
2372.23	1664.5
2370.65	1656.5
2369.07	1671.5
2367.49	1664
2365.91	1670.5
2364.33	1656.5
2362.75	1638.5
2361.17	1658
2359.59	1633.5
2358.01	1628
2356.42	1659
2354.84	1625
2353.25	1617.5
2351.67	1644
2350.09	1603.5
2348.5	1603
2346.92	1613
2345.33	1615.5
2343.74	1614.5
2342.16	1633
2340.57	1669
2338.98	1615.5
2337.39	1603
2335.81	1592.5
2334.22	1567.5
2332.63	1546
2331.04	1573
2329.45	1583
2327.86	1584.5
2326.27	1583
2324.68	1581.5
2323.09	1589
2321.49	1553.5
2319.9	1566
2318.31	1565
2316.72	1552.5
2315.12	1556.5
2313.53	1537
2311.93	1518
2310.34	1539.5
2308.74	1509.5
2307.15	1502
2305.55	1497
2303.96	1498
2302.36	1493
2300.76	1479.5
2299.17	1484
2297.57	1460.5
2295.97	1477.5
2294.37	1478
2292.77	1465
2291.17	1464
2289.57	1430.5
2287.97	1436.5
2286.37	1457.5
2284.77	1433.5
2283.17	1455
2281.57	1435.5
2279.96	1415.5
2278.36	1400.5
2276.76	1432.5
2275.15	1423.5
2273.55	1419.5
2271.95	1422.5
2270.34	1429.5
2268.74	1430.5
2267.13	1383.5
2265.52	1408.5
2263.92	1384.5
2262.31	1382
2260.7	1356.5
2259.1	1379
2257.49	1341
2255.88	1349.5
2254.27	1339
2252.66	1363
2251.05	1373
2249.44	1362.5
2247.83	1358.5
2246.22	1348
2244.61	1370
2243	1351.5
2241.39	1325.5
2239.77	1344
2238.16	1337
2236.55	1309
2234.93	1298
2233.32	1323.5
2231.7	1307.5
2230.09	1297.5
2228.47	1285.5
2226.86	1272.5
2225.24	1263
2223.63	1291.5
2222.01	1270
2220.39	1273
2218.77	1267.5
2217.16	1255
2215.54	1248.5
2213.92	1249.5
2212.3	1253
2210.68	1230.5
2209.06	1237
2207.44	1236
2205.82	1238
2204.19	1214
2202.57	1216
2200.95	1211.5
2199.33	1210.5
2197.7	1211
2196.08	1199.5
2194.46	1210
2192.83	1199
2191.21	1204
2189.58	1189
2187.96	1199
2186.33	1211
2184.7	1187.5
2183.08	1183.5
2181.45	1166
2179.82	1174.5
2178.19	1171.5
2176.57	1178
2174.94	1164.5
2173.31	1136
2171.68	1140.5
2170.05	1150.5
2168.42	1146
2166.79	1151
2165.16	1141.5
2163.52	1137.5
2161.89	1157
2160.26	1103
2158.63	1131.5
2156.99	1095
2155.36	1107
2153.73	1118
2152.09	1097
2150.46	1082.5
2148.82	1098
2147.18	1095
2145.55	1071.5
2143.91	1086
2142.27	1089
2140.64	1065
2139	1069.5
2137.36	1066.5
2135.72	1048
2134.08	1061.5
2132.44	1043.5
2130.8	1039
2129.16	1044
2127.52	1020.5
2125.88	1019.5
2124.24	1007
2122.6	1026.5
2120.95	999
2119.31	1002.5
2117.67	995
2116.02	1007
2114.38	988
2112.74	994
2111.09	989.5
2109.45	1003.5
2107.8	988
2106.15	980.5
2104.51	994.5
2102.86	956
2101.21	954
2099.56	965.5
2097.92	941
2096.27	952.5
2094.62	967
2092.97	955.5
2091.32	954
2089.67	962.5
2088.02	945
2086.37	944.5
2084.72	940
2083.06	940.5
2081.41	947.5
2079.76	931.5
2078.1	927.5
2076.45	936
2074.8	945.5
2073.14	939.5
2071.49	924
2069.83	945.5
2068.18	923
2066.52	911
2064.86	914
2063.21	918
2061.55	918
2059.89	908.5
2058.23	930
2056.57	907
2054.92	906.5
2053.26	907.5
2051.6	899
2049.94	894
2048.27	883
2046.61	884
2044.95	871
2043.29	880
2041.63	881
2039.97	875.5
2038.3	852
2036.64	871
2034.97	860
2033.31	867.5
2031.64	864.5
2029.98	846.5
2028.31	824.5
2026.65	840.5
2024.98	833
2023.31	822
2021.65	818.5
2019.98	822
2018.31	830
2016.64	824
2014.97	814
2013.3	817.5
2011.63	829
2009.96	792.5
2008.29	795
2006.62	794
2004.95	809.5
2003.28	773
2001.6	794
1999.93	811.5
1998.26	776
1996.58	792
1994.91	788.5
1993.24	777
1991.56	784.5
1989.89	757
1988.21	783.5
1986.53	775.5
1984.86	760
1983.18	767.5
1981.5	765
1979.82	751.5
1978.15	751
1976.47	753
1974.79	754.5
1973.11	746.5
1971.43	754
1969.75	737.5
1968.07	735
1966.38	739.5
1964.7	712.5
1963.02	726.5
1961.34	731.5
1959.66	732
1957.97	732.5
1956.29	734
1954.6	706.5
1952.92	730
1951.23	721
1949.55	713.5
1947.86	707
1946.18	707.5
1944.49	696.5
1942.8	689.5
1941.11	711
1939.43	690
1937.74	679
1936.05	691.5
1934.36	701.5
1932.67	697
1930.98	681
1929.29	688
1927.6	665
1925.91	647.5
1924.21	664
1922.52	647
1920.83	664
1919.14	648.5
1917.44	664.5
1915.75	673
1914.05	652.5
1912.36	645.5
1910.66	667.5
1908.97	659.5
1907.27	642.5
1905.58	647.5
1903.88	632
1902.18	619.5
1900.48	628
1898.79	624
1897.09	609
1895.39	612.5
1893.69	598
1891.99	625
1890.29	612.5
1888.59	604.5
1886.89	614
1885.18	606.5
1883.48	585.5
1881.78	609.5
1880.08	606.5
1878.37	588.5
1876.67	570
1874.96	580
1873.26	582
1871.55	555.5
1869.85	582
1868.14	558.5
1866.44	565
1864.73	581
1863.02	582.5
1861.32	560.5
1859.61	578.5
1857.9	564
1856.19	568.5
1854.48	571
1852.77	561.5
1851.06	547
1849.35	548.5
1847.64	556.5
1845.93	549
1844.21	559
1842.5	541.5
1840.79	553.5
1839.08	540
1837.36	537.5
1835.65	548.5
1833.93	542
1832.22	546
1830.5	531
1828.79	527
1827.07	535.5
1825.36	532.5
1823.64	526.5
1821.92	511
1820.2	519.5
1818.48	509
1816.77	523.5
1815.05	521
1813.33	507
1811.61	524.5
1809.89	499
1808.16	512
1806.44	489.5
1804.72	514
1803	511
1801.28	492
1799.55	480
1797.83	496
1796.11	478
1794.38	485
1792.66	489
1790.93	486
1789.21	502
1787.48	505.5
1785.75	482
1784.03	484
1782.3	481
1780.57	484
1778.84	480
1777.11	490.5
1775.38	474
1773.66	489
1771.93	469.5
1770.19	487
1768.46	457.5
1766.73	478
1765	484.5
1763.27	492
1761.54	501
1759.8	493.5
1758.07	507
1756.34	504
1754.6	521.5
1752.87	529.5
1751.13	536.5
1749.4	532
1747.66	546.5
1745.92	532
1744.19	543
1742.45	549
1740.71	533.5
1738.97	524
1737.23	514.5
1735.49	504
1733.75	490
1732.01	484.5
1730.27	477
1728.53	470.5
1726.79	453
1725.05	458
1723.31	456
1721.57	439.5
1719.82	448.5
1718.08	441
1716.34	440.5
1714.59	430
1712.85	452
1711.1	428.5
1709.36	420
1707.61	434.5
1705.86	441.5
1704.12	426
1702.37	431
1700.62	437
1698.87	425.5
1697.12	410
1695.37	424.5
1693.62	425.5
1691.87	409.5
1690.12	407.5
1688.37	425.5
1686.62	409
1684.87	417.5
1683.12	424
1681.36	416
1679.61	415.5
1677.86	428.5
1676.1	435.5
1674.35	443
1672.59	448
1670.84	469
1669.08	479
1667.33	528
1665.57	545
1663.81	579.5
1662.06	611.5
1660.3	675.5
1658.54	696
1656.78	682
1655.02	691.5
1653.26	654.5
1651.5	605.5
1649.74	577.5
1647.98	547
1646.22	499
1644.46	490
1642.7	461
1640.93	451.5
1639.17	439.5
1637.41	419
1635.64	436
1633.88	395.5
1632.11	410.5
1630.35	400.5
1628.58	381
1626.81	393
1625.05	384.5
1623.28	382
1621.51	379.5
1619.75	377
1617.98	375.5
1616.21	373
1614.44	367
1612.67	362.5
1610.9	366.5
1609.13	369
1607.36	371.5
1605.58	374
1603.81	365.5
1602.04	368
1600.27	374
1598.49	367.5
1596.72	362
1594.95	372
1593.17	356.5
1591.4	357
1589.62	359.5
1587.84	360
1586.07	353
1584.29	363.5
1582.51	362.5
1580.74	354
1578.96	358
1577.18	368.5
1575.4	354
1573.62	373
1571.84	362.5
1570.06	344.5
1568.28	358.5
1566.5	348.5
1564.72	339
1562.93	357.5
1561.15	341.5
1559.37	350
1557.58	364.5
1555.8	342
1554.02	347.5
1552.23	339
1550.45	361
1548.66	345.5
1546.87	336
1545.09	348.5
1543.3	341.5
1541.51	340
1539.72	356
1537.94	337
1536.15	350.5
1534.36	339
1532.57	330.5
1530.78	318
1528.99	336.5
1527.2	333
1525.4	340
1523.61	339
1521.82	341.5
1520.03	353
1518.23	336
1516.44	338
1514.65	335
1512.85	353
1511.06	339
1509.26	348.5
1507.46	340
1505.67	353
1503.87	352.5
1502.07	350
1500.28	362
1498.48	369
1496.68	360
1494.88	375.5
1493.08	383.5
1491.28	385
1489.48	396.5
1487.68	396
1485.88	405
1484.08	426
1482.27	446
1480.47	452.5
1478.67	490
1476.86	490
1475.06	536.5
1473.25	569
1471.45	593.5
1469.64	632.5
1467.84	698.5
1466.03	711
1464.23	749
1462.42	808
1460.61	810.5
1458.8	850
1456.99	920
1455.18	916.5
1453.37	953.5
1451.56	972
1449.75	1020.5
1447.94	1057.5
1446.13	1114
1444.32	1149.5
1442.51	1171
1440.7	1193.5
1438.88	1132
1437.07	1079
1435.26	1007.5
1433.44	879
1431.63	790
1429.81	694
1427.99	631.5
1426.18	585
1424.36	533.5
1422.54	524
1420.73	490.5
1418.91	490
1417.09	466
1415.27	431.5
1413.45	425
1411.63	406
1409.81	400.5
1407.99	387
1406.17	384
1404.35	380
1402.53	370.5
1400.7	366
1398.88	366.5
1397.06	367
1395.23	355.5
1393.41	348
1391.58	358
1389.76	345
1387.93	338
1386.11	364
1384.28	348
1382.45	351.5
1380.62	345.5
1378.8	351.5
1376.97	360
1375.14	366.5
1373.31	373
1371.48	368
1369.65	371.5
1367.82	384
1365.99	378
1364.16	368
1362.32	381
1360.49	364.5
1358.66	368
1356.82	361.5
1354.99	365
1353.16	379.5
1351.32	368
1349.48	358.5
1347.65	370
1345.81	370
1343.98	364
1342.14	384
1340.3	380
1338.46	383
1336.62	381.5
1334.79	395
1332.95	406
1331.11	417.5
1329.27	443
1327.42	456
1325.58	475
1323.74	501.5
1321.9	526
1320.06	552.5
1318.21	557.5
1316.37	585
1314.53	633.5
1312.68	684
1310.84	723.5
1308.99	760
1307.15	809.5
1305.3	820.5
1303.45	891.5
1301.61	936
1299.76	913.5
1297.91	897.5
1296.06	829
1294.21	768.5
1292.36	701.5
1290.51	643
1288.66	615.5
1286.81	597
1284.96	571
1283.11	568
1281.26	589
1279.4	560.5
1277.55	573
1275.7	563
1273.84	592.5
1271.99	594.5
1270.13	600.5
1268.28	590
1266.42	591.5
1264.56	588.5
1262.71	578
1260.85	554.5
1258.99	547
1257.13	550.5
1255.27	520.5
1253.41	515
1251.56	479
1249.7	474
1247.83	456
1245.97	437.5
1244.11	427.5
1242.25	409
1240.39	380
1238.52	393.5
1236.66	379.5
1234.8	383.5
1232.93	380
1231.07	361.5
1229.2	371
1227.34	358
1225.47	372
1223.6	354.5
1221.74	346.5
1219.87	346
1218	350
1216.13	327
1214.26	333.5
1212.39	338.5
1210.53	339
1208.65	336
1206.78	328
1204.91	343
1203.04	337
1201.17	333
1199.3	332
1197.42	324
1195.55	324
1193.68	323
1191.8	321
1189.93	329.5
1188.05	325
1186.17	323.5
1184.3	331.5
1182.42	313.5
1180.54	326.5
1178.67	331.5
1176.79	346
1174.91	327
1173.03	344.5
1171.15	330.5
1169.27	328
1167.39	329.5
1165.51	327.5
1163.63	335
1161.75	317
1159.86	339
1157.98	331
1156.1	332
1154.21	342.5
1152.33	339
1150.44	341
1148.56	336
1146.67	357.5
1144.79	357
1142.9	350
1141.01	350
1139.12	368
1137.24	399
1135.35	414.5
1133.46	460.5
1131.57	490.5
1129.68	510
1127.79	522.5
1125.9	516
1124.01	493
1122.12	478
1120.22	476.5
1118.33	462
1116.44	466.5
1114.54	454
1112.65	445
1110.75	463.5
1108.86	458
1106.96	463.5
1105.07	484.5
1103.17	506
1101.27	523.5
1099.38	550
1097.48	585
1095.58	579.5
1093.68	602
1091.78	595.5
1089.88	617.5
1087.98	644.5
1086.08	673
1084.18	692.5
1082.28	696.5
1080.38	697
1078.47	665.5
1076.57	672.5
1074.67	638.5
1072.76	659
1070.86	634.5
1068.95	671
1067.05	714
1065.14	693.5
1063.24	714
1061.33	695
1059.42	634.5
1057.51	577
1055.6	544.5
1053.7	501
1051.79	502
1049.88	492
1047.97	514.5
1046.06	475.5
1044.14	464.5
1042.23	484.5
1040.32	487
1038.41	480
1036.5	478
1034.58	483.5
1032.67	473.5
1030.75	475.5
1028.84	483
1026.92	467
1025.01	462.5
1023.09	465
1021.17	459
1019.26	465.5
1017.34	472
1015.42	461.5
1013.5	450.5
1011.58	442.5
1009.66	451
1007.74	440
1005.82	435.5
1003.9	439
1001.98	424
1000.06	426
998.134	434.5
996.212	443.5
994.288	418
992.364	443
990.44	441
988.515	462.5
986.589	470.5
984.663	493
982.737	504.5
980.81	506
978.883	549.5
976.955	525.5
975.027	557.5
973.098	576
971.169	563.5
969.239	575.5
967.308	549
965.378	562
963.447	557
961.516	554
959.583	546
957.65	547.5
955.718	558.5
953.784	556
951.85	558
949.916	588.5
947.981	548
946.045	584
944.109	601.5
942.173	583.5
940.236	609.5
938.298	597.5
936.36	581.5
934.422	593.5
932.484	578
930.544	534
928.604	517
926.664	537
924.724	512.5
922.782	516.5
920.84	508
918.898	539
916.955	532.5
915.012	540.5
913.068	539.5
911.124	536.5
909.18	540
907.235	540
905.289	552.5
903.343	545
901.397	569
899.45	561
897.502	598
895.554	601
893.605	623
891.657	614
889.707	642.5
887.758	634
885.807	610.5
883.856	621.5
881.905	632
879.953	641
878.001	638
876.048	660
874.094	638.5
872.14	647
870.186	673.5
868.232	640
866.276	639.5
864.321	616
862.365	638.5
860.408	616.5
858.451	616.5
856.493	616
854.535	606
852.576	620
850.617	617
848.658	607
846.698	609
844.737	611
842.776	594.5
840.814	594.5
838.852	578
836.89	556
834.927	551
832.963	517
830.999	514.5
829.035	508
827.07	517
825.105	479.5
823.139	486.5
821.172	495.5
819.206	467
817.238	454
815.27	441
813.301	432.5
811.333	447.5
809.363	432
807.394	421
805.424	413.5
803.453	398.5
801.482	376
799.509	381.5
797.538	377
795.565	384.5
793.592	374
791.618	353
789.643	353
787.669	358
785.693	367.5
783.718	356.5
781.742	362
779.765	352.5
777.788	368
775.811	354
773.832	377.5
771.853	349
769.875	361
767.895	358
765.915	353
763.934	349.5
761.953	355.5
759.972	365.5
757.99	353.5
756.007	364.5
754.024	356.5
752.041	359.5
750.056	362.5
748.072	372.5
746.087	356
744.102	360.5
742.116	359.5
740.13	375
738.143	364
736.155	374.5
734.167	362.5
732.179	368.5
730.19	376.5
728.2	371
726.21	375
724.22	384.5
722.229	375
720.237	372.5
718.246	378.5
716.253	353
714.26	357
712.267	362.5
710.273	362
708.279	352.5
706.284	350
704.289	340.5
702.293	341
700.296	347.5
698.3	343.5
696.303	330.5
694.305	340.5
692.307	331
690.307	338
688.308	346
686.309	342
684.308	346
682.308	331.5
680.306	343.5
678.304	341.5
676.302	357
674.3	347.5
672.296	335
670.293	346.5
668.289	355.5
666.284	349.5
664.278	364
662.273	344
660.266	362.5
658.26	358.5
656.252	351
654.244	369.5
652.237	372
650.227	370.5
648.218	350
646.209	360.5
644.198	360.5
642.188	359.5
640.177	376.5
638.165	377
636.153	371.5
634.14	380.5
632.128	387.5
630.113	396.5
628.099	395.5
626.085	384.5
624.07	381.5
622.054	396
620.038	399.5
618.021	403
616.004	388
613.986	398
611.968	398
609.949	411
607.93	420
605.911	411.5
603.891	422.5
601.87	416.5
599.848	409.5
597.827	416
595.805	425
593.782	407
591.759	402
589.735	411.5
587.711	399
585.687	415
583.661	406.5
581.636	395.5
579.609	393.5
577.583	381
575.555	396
573.527	382
571.5	408
569.471	391.5
567.441	404
565.412	385
563.382	381.5
561.351	412
559.32	409.5
557.289	426
555.257	426.5
553.223	410.5
551.19	427
549.157	443.5
547.122	460
545.088	464.5
543.053	480
541.017	515
538.981	560
536.943	573
534.907	644.5
532.869	814
530.831	1023
528.792	1421
526.752	2074.5
524.713	3062
522.673	4016.5
520.632	4204.5
518.591	3556.5
516.549	2643
514.507	1867.5
512.464	1275.5
510.42	958
508.377	763
506.332	641
504.288	600
502.242	579.5
500.196	549.5
498.15	543.5
496.104	519.5
494.056	521
492.008	537
489.96	525.5
487.911	506.5
485.862	508.5
483.812	487.5
481.761	488
479.71	480
477.659	503
475.607	497
473.555	497
471.502	481.5
469.448	469.5
467.395	477
465.34	492.5
463.285	472.5
461.23	489.5
459.174	489.5
457.118	497
455.061	495.5
453.003	508.5
450.945	509.5
448.887	500.5
446.828	495.5
444.768	521
442.708	507
440.647	514.5
438.587	526
436.525	521
434.463	529
432.4	529.5
430.337	524
428.274	535
426.21	536
424.145	546.5
422.079	531
420.014	537.5
417.948	515.5
415.882	544
413.814	542.5
411.746	546.5
409.679	544.5
407.609	552.5
405.54	560
403.47	555.5
401.401	555
399.329	559.5
397.258	554.5
395.187	555
393.114	558.5
391.041	558.5
388.968	553.5
386.895	571
384.82	564.5
382.745	573.5
380.67	571.5
378.594	582
376.517	593.5
374.44	579
372.363	585
370.286	588
368.207	580
366.128	592.5
364.049	586
361.969	596
359.888	611.5
357.807	601.5
355.725	618
353.643	606.5
351.561	610
349.477	599
347.394	623.5
345.31	618.5
343.226	607
341.141	627.5
339.055	632.5
336.968	638
334.882	636
332.795	633
330.707	640.5
328.618	650.5
326.53	673.5
324.44	659.5
322.351	671
320.26	688.5
318.17	689
316.078	705
313.987	730.5
311.895	748
309.802	770.5
307.708	780.5
305.614	787
303.52	795.5
301.425	796
299.329	782
297.233	809
295.137	789.5
293.039	772
290.942	780
288.844	754.5
286.745	772.5
284.647	751
282.546	774
280.446	780
278.346	770
276.245	758
274.143	808.5
272.041	815
269.939	804
267.835	807
265.731	807
263.627	802.5
261.522	817.5
259.417	830
257.311	856.5
255.204	837.5
253.098	836.5
250.99	855.5
248.882	880
246.774	892
244.664	882
242.555	875
240.445	903
238.334	901
236.223	918.5
234.112	923.5
232	934
229.888	946.5
227.775	964.5
225.661	971
223.546	965.5
221.431	983.5
219.316	971.5
217.201	984
215.084	992
212.967	1008.5
210.85	976.5
208.732	980
206.614	1001.5
204.495	1004
202.375	996.5
200.256	989.5
198.135	998
196.014	996.5
193.893	986
191.771	997
189.648	988.5
187.525	992
185.401	999
183.277	987.5
181.152	1002
179.027	982.5
176.901	1000
174.775	1019
172.648	1021.5
170.521	1031.5
168.393	1046.5
166.265	1059
164.136	1057
162.007	1066
159.876	1087
157.746	1111.5
155.615	1153.5
153.483	1142.5
151.351	1187
149.219	1195
147.086	1224
144.952	1254.5
142.818	1304.5
140.684	1318.5
138.548	1367.5
136.413	1400.5
134.276	1428
132.139	1477
130.002	1518
127.864	1500.5
125.725	1620
123.587	1662
121.447	1702
119.307	1753
117.166	1805.5
115.026	1891.5
112.885	1910
110.743	2023.5
108.6	2045
106.456	2099.5
104.313	2128
102.169	2117
100.023	2051.5
97.8789	1953
95.7328	1759
93.5869	1564
91.4392	1365
89.2919	1118
87.1447	909
84.9959	716
