3528.51	165
3527.23	169.5
3525.95	181.5
3524.67	169
3523.39	187.5
3522.1	191.5
3520.82	192.5
3519.54	189.5
3518.26	193.5
3516.97	186.5
3515.69	182.5
3514.4	205
3513.12	187.5
3511.84	202.5
3510.55	193
3509.26	201
3507.98	197.5
3506.69	201
3505.41	197
3504.12	206.5
3502.83	201.5
3501.54	210
3500.26	210.5
3498.97	216
3497.68	224.5
3496.39	228
3495.1	235.5
3493.81	235
3492.52	236.5
3491.23	241
3489.94	240.5
3488.65	249
3487.36	253.5
3486.07	251.5
3484.78	269
3483.49	270
3482.19	257.5
3480.9	276
3479.61	279
3478.31	267
3477.02	272
3475.73	278
3474.43	268.5
3473.14	277
3471.84	289.5
3470.54	291
3469.25	293
3467.95	301.5
3466.66	275.5
3465.36	306.5
3464.06	298.5
3462.76	292.5
3461.46	302
3460.17	304
3458.87	311.5
3457.57	309
3456.27	316
3454.97	315
3453.67	311.5
3452.37	312
3451.07	337
3449.77	318.5
3448.47	330.5
3447.16	342
3445.86	335
3444.56	343.5
3443.26	354
3441.95	369.5
3440.65	368.5
3439.35	369.5
3438.04	375.5
3436.74	391
3435.43	408.5
3434.13	404.5
3432.82	421
3431.52	409.5
3430.21	414
3428.9	435.5
3427.6	436.5
3426.29	460.5
3424.98	437.5
3423.67	469
3422.36	478
3421.06	454
3419.75	465.5
3418.44	481
3417.13	478
3415.82	492.5
3414.51	494.5
3413.2	496
3411.88	505.5
3410.57	504
3409.26	519
3407.95	527
3406.64	509.5
3405.32	523.5
3404.01	532
3402.7	514
3401.38	523
3400.07	537.5
3398.75	543.5
3397.44	546
3396.12	561.5
3394.81	548
3393.49	525
3392.18	566
3390.86	572
3389.54	577.5
3388.23	584
3386.91	582
3385.59	594
3384.27	588
3382.95	601
3381.63	607.5
3380.31	609
3378.99	612
3377.67	632
3376.35	629
3375.03	626
3373.71	648
3372.39	651.5
3371.07	642
3369.75	650
3368.42	659
3367.1	653
3365.78	673
3364.45	663.5
3363.13	685
3361.81	658.5
3360.48	698.5
3359.16	667.5
3357.83	679
3356.51	709
3355.18	693.5
3353.85	712.5
3352.53	702
3351.2	724.5
3349.87	708
3348.54	705.5
3347.22	732
3345.89	730
3344.56	727
3343.23	722.5
3341.9	716.5
3340.57	729.5
3339.24	739
3337.91	738
3336.58	740.5
3335.25	744.5
3333.92	755
3332.58	742.5
3331.25	758
3329.92	753
3328.59	735.5
3327.25	766
3325.92	761
3324.58	762.5
3323.25	757.5
3321.92	775
3320.58	768
3319.25	780
3317.91	783
3316.57	786.5
3315.24	785
3313.9	766
3312.56	795.5
3311.23	811.5
3309.89	798
3308.55	810.5
3307.21	816
3305.87	826
3304.53	837
3303.19	816.5
3301.85	817.5
3300.51	836
3299.17	827
3297.83	832
3296.49	826
3295.15	844
3293.81	860.5
3292.46	862.5
3291.12	856
3289.78	863
3288.43	863.5
3287.09	862
3285.75	863.5
3284.4	874
3283.06	870.5
3281.71	874.5
3280.37	894.5
3279.02	886.5
3277.67	911.5
3276.33	915.5
3274.98	924.5
3273.63	916.5
3272.28	928.5
3270.94	921.5
3269.59	930
3268.24	945.5
3266.89	966.5
3265.54	975.5
3264.19	995
3262.84	1021.5
3261.49	1016.5
3260.14	1042
3258.79	1061
3257.44	1067.5
3256.08	1120
3254.73	1129.5
3253.38	1163
3252.03	1210
3250.67	1223.5
3249.32	1221
3247.96	1290
3246.61	1313
3245.26	1340
3243.9	1383.5
3242.54	1405.5
3241.19	1459.5
3239.83	1466
3238.48	1513
3237.12	1553
3235.76	1602.5
3234.41	1629.5
3233.05	1691
3231.69	1691.5
3230.33	1738
3228.97	1767
3227.61	1764.5
3226.25	1791.5
3224.89	1853
3223.53	1865
3222.17	1918.5
3220.81	1907.5
3219.45	1932
3218.09	1939.5
3216.72	1955
3215.36	1984.5
3214	1991.5
3212.63	2001
3211.27	2027
3209.91	2060
3208.54	2049.5
3207.18	2076.5
3205.81	2076
3204.45	2116.5
3203.08	2108.5
3201.71	2082
3200.35	2138.5
3198.98	2133
3197.61	2172
3196.25	2178.5
3194.88	2179.5
3193.51	2216.5
3192.14	2208.5
3190.77	2245.5
3189.4	2220.5
3188.03	2237.5
3186.66	2246.5
3185.29	2284.5
3183.92	2275
3182.55	2269.5
3181.18	2318.5
3179.81	2320.5
3178.44	2357.5
3177.06	2383
3175.69	2379.5
3174.32	2406
3172.94	2388.5
3171.57	2434.5
3170.2	2457.5
3168.82	2454
3167.45	2461
3166.07	2497.5
3164.69	2494.5
3163.32	2534
3161.94	2566.5
3160.56	2582.5
3159.19	2580.5
3157.81	2627.5
3156.43	2630.5
3155.05	2640.5
3153.67	2664
3152.3	2671.5
3150.92	2718.5
3149.54	2714.5
3148.16	2785.5
3146.78	2768.5
3145.4	2798
3144.01	2787
3142.63	2840.5
3141.25	2800.5
3139.87	2841
3138.49	2871
3137.1	2906.5
3135.72	2884
3134.34	2928
3132.95	2947
3131.57	2974
3130.18	2983
3128.8	3030.5
3127.41	3003
3126.03	3028
3124.64	3084.5
3123.25	3093.5
3121.87	3120.5
3120.48	3139.5
3119.09	3120
3117.7	3179.5
3116.32	3166
3114.93	3182.5
3113.54	3202.5
3112.15	3229
3110.76	3250
3109.37	3231
3107.98	3261.5
3106.59	3237
3105.2	3292
3103.8	3253.5
3102.41	3285
3101.02	3301
3099.63	3351.5
3098.23	3370
3096.84	3375
3095.45	3435.5
3094.05	3416.5
3092.66	3408
3091.26	3450.5
3089.87	3414
3088.47	3416.5
3087.08	3475
3085.68	3488
3084.28	3481.5
3082.89	3481.5
3081.49	3492
3080.09	3482
3078.69	3507
3077.3	3524.5
3075.9	3571
3074.5	3576.5
3073.1	3584
3071.7	3581
3070.3	3571
3068.9	3635
3067.5	3575
3066.09	3620.5
3064.69	3625
3063.29	3609
3061.89	3623.5
3060.48	3640.5
3059.08	3671.5
3057.68	3645.5
3056.27	3706.5
3054.87	3721
3053.46	3697
3052.06	3705
3050.65	3725
3049.25	3735
3047.84	3763.5
3046.44	3792.5
3045.03	3726
3043.62	3765
3042.21	3791
3040.81	3745.5
3039.4	3801
3037.99	3844.5
3036.58	3828.5
3035.17	3842.5
3033.76	3810.5
3032.35	3832.5
3030.94	3799.5
3029.53	3822.5
3028.12	3851
3026.71	3850
3025.29	3911
3023.88	3917.5
3022.47	3877.5
3021.06	3906
3019.64	3844
3018.23	3880
3016.82	3888.5
3015.4	3857.5
3013.99	3896.5
3012.57	3940
3011.15	3926.5
3009.74	3943.5
3008.32	3971.5
3006.91	3957
3005.49	3943.5
3004.07	3962.5
3002.65	3984.5
3001.24	3986.5
2999.82	4039.5
2998.4	4015.5
2996.98	4082.5
2995.56	4117.5
2994.14	4087
2992.72	4092.5
2991.3	4151.5
2989.88	4166.5
2988.46	4187.5
2987.03	4225.5
2985.61	4170.5
2984.19	4237.5
2982.77	4287.5
2981.34	4331.5
2979.92	4277
2978.49	4352.5
2977.07	4323.5
2975.65	4394.5
2974.22	4377
2972.79	4415
2971.37	4387.5
2969.94	4422
2968.52	4446
2967.09	4437
2965.66	4448
2964.23	4483
2962.81	4478.5
2961.38	4493
2959.95	4481
2958.52	4553
2957.09	4525
2955.66	4541.5
2954.23	4549.5
2952.8	4557
2951.37	4576
2949.94	4589
2948.5	4552.5
2947.07	4551.5
2945.64	4540.5
2944.21	4634.5
2942.77	4620.5
2941.34	4599.5
2939.91	4620
2938.47	4649
2937.04	4623
2935.6	4681.5
2934.17	4658
2932.73	4683
2931.29	4718
2929.86	4713
2928.42	4824.5
2926.98	4749.5
2925.55	4730
2924.11	4812
2922.67	4773
2921.23	4767
2919.79	4816.5
2918.35	4774.5
2916.91	4796.5
2915.47	4784
2914.03	4766.5
2912.59	4791.5
2911.15	4795
2909.71	4797
2908.26	4811
2906.82	4820
2905.38	4800.5
2903.94	4827
2902.49	4842
2901.05	4859.5
2899.6	4908
2898.16	4867
2896.71	4919
2895.27	4894.5
2893.82	4874
2892.38	4889.5
2890.93	4891.5
2889.48	4839.5
2888.03	4830
2886.59	4894
2885.14	4891
2883.69	4894
2882.24	4863.5
2880.79	4875.5
2879.34	4893
2877.89	4919
2876.44	4870
2874.99	4909
2873.54	4849.5
2872.09	4918
2870.64	4901.5
2869.18	4876.5
2867.73	4897
2866.28	4929.5
2864.83	4919.5
2863.37	4907.5
2861.92	4916
2860.46	4906
2859.01	4911.5
2857.55	4905
2856.1	4919.5
2854.64	4947
2853.19	4910.5
2851.73	4942
2850.27	4897.5
2848.81	4922
2847.36	4907
2845.9	4971.5
2844.44	4918.5
2842.98	4918.5
2841.52	4929.5
2840.06	4895.5
2838.6	4917
2837.14	4977.5
2835.68	4899
2834.22	4907.5
2832.76	4912
2831.3	4914
2829.83	4887.5
2828.37	4873.5
2826.91	4889
2825.44	4921
2823.98	4909
2822.52	4875
2821.05	4933
2819.59	4867.5
2818.12	4854.5
2816.66	4880
2815.19	4894.5
2813.72	4894
2812.26	4876
2810.79	4869.5
2809.32	4861
2807.85	4899.5
2806.38	4865
2804.92	4835
2803.45	4865
2801.98	4896
2800.51	4871.5
2799.04	4858
2797.57	4837
2796.1	4905.5
2794.62	4909
2793.15	4854
2791.68	4898
2790.21	4885.5
2788.73	4899.5
2787.26	4870
2785.79	4891
2784.31	4921.5
2782.84	4899
2781.36	4971.5
2779.89	4939
2778.41	4911.5
2776.94	4916
2775.46	4944
2773.99	4944.5
2772.51	4914.5
2771.03	5001.5
2769.55	4983.5
2768.07	4969
2766.6	4999
2765.12	4997
2763.64	4984
2762.16	5046.5
2760.68	5010
2759.2	4998.5
2757.72	4972
2756.24	5000.5
2754.75	5033
2753.27	5026.5
2751.79	4981
2750.31	4943.5
2748.82	4972
2747.34	5028
2745.86	4962
2744.37	4988
2742.89	4973.5
2741.4	4982.5
2739.92	4945.5
2738.43	4931.5
2736.94	4900.5
2735.46	4913.5
2733.97	4921
2732.48	4892
2731	4926
2729.51	4882
2728.02	4925
2726.53	4883
2725.04	4913.5
2723.55	4864.5
2722.06	4932.5
2720.57	4915
2719.08	4925.5
2717.59	4923.5
2716.1	4928
2714.61	4933
2713.11	4922.5
2711.62	4991.5
2710.13	4930
2708.64	4933.5
2707.14	4921
2705.65	4948.5
2704.15	4906.5
2702.66	4848
2701.16	4826
2699.67	4900
2698.17	4885.5
2696.67	4801
2695.18	4827
2693.68	4854
2692.18	4799.5
2690.69	4837.5
2689.19	4773
2687.69	4801.5
2686.19	4835
2684.69	4778.5
2683.19	4764
2681.69	4708
2680.19	4756.5
2678.69	4729.5
2677.19	4769
2675.68	4742
2674.18	4743.5
2672.68	4741
2671.18	4720
2669.67	4753.5
2668.17	4708
2666.66	4696.5
2665.16	4694
2663.66	4766.5
2662.15	4731
2660.64	4747
2659.14	4714.5
2657.63	4735.5
2656.13	4720
2654.62	4743
2653.11	4698.5
2651.6	4697
2650.09	4674
2648.58	4684.5
2647.08	4674
2645.57	4630
2644.06	4647
2642.55	4683.5
2641.04	4612.5
2639.52	4565
2638.01	4574.5
2636.5	4592.5
2634.99	4578
2633.48	4566
2631.96	4570.5
2630.45	4565
2628.94	4515
2627.42	4553.5
2625.91	4512.5
2624.39	4520
2622.88	4504.5
2621.36	4508.5
2619.85	4531.5
2618.33	4525
2616.81	4483
2615.3	4505
2613.78	4458
2612.26	4505.5
2610.74	4519
2609.22	4505
2607.7	4483.5
2606.18	4479.5
2604.66	4516
2603.14	4474.5
2601.62	4428
2600.1	4417.5
2598.58	4393
2597.06	4396.5
2595.54	4408.5
2594.01	4329
2592.49	4364
2590.97	4333.5
2589.44	4339
2587.92	4358
2586.39	4313.5
2584.87	4356
2583.34	4305
2581.82	4273
2580.29	4318
2578.76	4312.5
2577.24	4332.5
2575.71	4294
2574.18	4302
2572.65	4306.5
2571.13	4314.5
2569.6	4314
2568.07	4292
2566.54	4283.5
2565.01	4242
2563.48	4294
2561.95	4270.5
2560.42	4235.5
2558.88	4231.5
2557.35	4199.5
2555.82	4239
2554.29	4185
2552.75	4150.5
2551.22	4186.5
2549.69	4133.5
2548.15	4147
2546.62	4170
2545.08	4218.5
2543.55	4149.5
2542.01	4137
2540.47	4144.5
2538.94	4083.5
2537.4	4068.5
2535.86	4020
2534.33	4037.5
2532.79	4049.5
2531.25	4038.5
2529.71	4072.5
2528.17	4037.5
2526.63	4003
2525.09	4031
2523.55	3976
2522.01	4028.5
2520.47	3972
2518.92	3968
2517.38	3937.5
2515.84	3971
2514.3	3892.5
2512.75	3878.5
2511.21	3915
2509.67	3873.5
2508.12	3888
2506.58	3871.5
2505.03	3843.5
2503.49	3833.5
2501.94	3794
2500.39	3794.5
2498.85	3777
2497.3	3816
2495.75	3799
2494.2	3758
2492.65	3747
2491.11	3768.5
2489.56	3703
2488.01	3702
2486.46	3718.5
2484.91	3713
2483.36	3669.5
2481.8	3709.5
2480.25	3677
2478.7	3638.5
2477.15	3615.5
2475.6	3565.5
2474.04	3569
2472.49	3587.5
2470.93	3580.5
2469.38	3568
2467.83	3565.5
2466.27	3548.5
2464.71	3524
2463.16	3525
2461.6	3520.5
2460.05	3502
2458.49	3467.5
2456.93	3492
2455.37	3455.5
2453.81	3432
2452.26	3468.5
2450.7	3398
2449.14	3396
2447.58	3390
2446.02	3365
2444.46	3331.5
2442.9	3339
2441.33	3324
2439.77	3330
2438.21	3336
2436.65	3311.5
2435.08	3312.5
2433.52	3294
2431.96	3321
2430.39	3326.5
2428.83	3285
2427.26	3256
2425.7	3266
2424.13	3273
2422.56	3289
2421	3270
2419.43	3252.5
2417.86	3240.5
2416.3	3213
2414.73	3261
2413.16	3242
2411.59	3233
2410.02	3218
2408.45	3232
2406.88	3188
2405.31	3173.5
2403.74	3189.5
2402.17	3227.5
2400.6	3193.5
2399.02	3203
2397.45	3162.5
2395.88	3219.5
2394.3	3147
2392.73	3111.5
2391.16	3150.5
2389.58	3159.5
2388.01	3164
2386.43	3163
2384.86	3132
2383.28	3115
2381.7	3097
2380.13	3101.5
2378.55	3112
2376.97	3103.5
2375.39	3122
2373.81	3093.5
2372.23	3065.5
2370.65	3111
2369.07	3088.5
2367.49	3097
2365.91	3041.5
2364.33	3015.5
2362.75	3012.5
2361.17	3024.5
2359.59	3045
2358.01	3009
2356.42	2954
2354.84	2996
2353.25	2966.5
2351.67	2954.5
2350.09	2963
2348.5	2961
2346.92	2980
2345.33	2947.5
2343.74	2929
2342.16	2954.5
2340.57	2995
2338.98	2893.5
2337.39	2933
2335.81	2930
2334.22	2972.5
2332.63	2904
2331.04	2920.5
2329.45	2875
2327.86	2857
2326.27	2860
2324.68	2879.5
2323.09	2852
2321.49	2871
2319.9	2854.5
2318.31	2872
2316.72	2849
2315.12	2822
2313.53	2822
2311.93	2798.5
2310.34	2790
2308.74	2776.5
2307.15	2773
2305.55	2715.5
2303.96	2718.5
2302.36	2711
2300.76	2699.5
2299.17	2721
2297.57	2730.5
2295.97	2708.5
2294.37	2653.5
2292.77	2702.5
2291.17	2687.5
2289.57	2737.5
2287.97	2659.5
2286.37	2693.5
2284.77	2666
2283.17	2653.5
2281.57	2673.5
2279.96	2671
2278.36	2607
2276.76	2602.5
2275.15	2626
2273.55	2579
2271.95	2571.5
2270.34	2587
2268.74	2572
2267.13	2569.5
2265.52	2538.5
2263.92	2546.5
2262.31	2572
2260.7	2531
2259.1	2535.5
2257.49	2528.5
2255.88	2531.5
2254.27	2501.5
2252.66	2525.5
2251.05	2521.5
2249.44	2479.5
2247.83	2508
2246.22	2470.5
2244.61	2442
2243	2497.5
2241.39	2444.5
2239.77	2439.5
2238.16	2426
2236.55	2421.5
2234.93	2389
2233.32	2395.5
2231.7	2353
2230.09	2343
2228.47	2337.5
2226.86	2333
2225.24	2353
2223.63	2314
2222.01	2332
2220.39	2322
2218.77	2319
2217.16	2323
2215.54	2303.5
2213.92	2282
2212.3	2287
2210.68	2302
2209.06	2277
2207.44	2272.5
2205.82	2261.5
2204.19	2271.5
2202.57	2260.5
2200.95	2264.5
2199.33	2245.5
2197.7	2239
2196.08	2199.5
2194.46	2209.5
2192.83	2219
2191.21	2228.5
2189.58	2200
2187.96	2157
2186.33	2179.5
2184.7	2200
2183.08	2152.5
2181.45	2166
2179.82	2137.5
2178.19	2129
2176.57	2108.5
2174.94	2161
2173.31	2111.5
2171.68	2109
2170.05	2104
2168.42	2096.5
2166.79	2110
2165.16	2116
2163.52	2105
2161.89	2089
2160.26	2081
2158.63	2054.5
2156.99	2044.5
2155.36	2045
2153.73	2042.5
2152.09	2028
2150.46	2032.5
2148.82	1986
2147.18	2042
2145.55	1985.5
2143.91	1984
2142.27	1988
2140.64	1974
2139	1942
2137.36	1972.5
2135.72	1926
2134.08	1918.5
2132.44	1931.5
2130.8	1910.5
2129.16	1887.5
2127.52	1879.5
2125.88	1907.5
2124.24	1827
2122.6	1869
2120.95	1844
2119.31	1828.5
2117.67	1857.5
2116.02	1837
2114.38	1828
2112.74	1817.5
2111.09	1820.5
2109.45	1818
2107.8	1788
2106.15	1794
2104.51	1781.5
2102.86	1827.5
2101.21	1777.5
2099.56	1760
2097.92	1769
2096.27	1737.5
2094.62	1764
2092.97	1726
2091.32	1775.5
2089.67	1753
2088.02	1743
2086.37	1732.5
2084.72	1737
2083.06	1746.5
2081.41	1739
2079.76	1716
2078.1	1699.5
2076.45	1706
2074.8	1712
2073.14	1708.5
2071.49	1706
2069.83	1710
2068.18	1685.5
2066.52	1678
2064.86	1693.5
2063.21	1673.5
2061.55	1686
2059.89	1671.5
2058.23	1663.5
2056.57	1644.5
2054.92	1644.5
2053.26	1623
2051.6	1624.5
2049.94	1600
2048.27	1628
2046.61	1610.5
2044.95	1587
2043.29	1610.5
2041.63	1602
2039.97	1576
2038.3	1562
2036.64	1544
2034.97	1545
2033.31	1545.5
2031.64	1534
2029.98	1536.5
2028.31	1504
2026.65	1489
2024.98	1509
2023.31	1492
2021.65	1523
2019.98	1488.5
2018.31	1505.5
2016.64	1492
2014.97	1468.5
2013.3	1472.5
2011.63	1461.5
2009.96	1451
2008.29	1440
2006.62	1427
2004.95	1460
2003.28	1421
2001.6	1415
1999.93	1425.5
1998.26	1423
1996.58	1398
1994.91	1406
1993.24	1419.5
1991.56	1420
1989.89	1402.5
1988.21	1411
1986.53	1391.5
1984.86	1395.5
1983.18	1414
1981.5	1382
1979.82	1357
1978.15	1370
1976.47	1343.5
1974.79	1368
1973.11	1353
1971.43	1354
1969.75	1329
1968.07	1333.5
1966.38	1328
1964.7	1338
1963.02	1318.5
1961.34	1293.5
1959.66	1326
1957.97	1275
1956.29	1297.5
1954.6	1300
1952.92	1304
1951.23	1259
1949.55	1282
1947.86	1279.5
1946.18	1281.5
1944.49	1259
1942.8	1262.5
1941.11	1232.5
1939.43	1237
1937.74	1238
1936.05	1231.5
1934.36	1202.5
1932.67	1217.5
1930.98	1211
1929.29	1190.5
1927.6	1197
1925.91	1235
1924.21	1169
1922.52	1187
1920.83	1157.5
1919.14	1185.5
1917.44	1190.5
1915.75	1151.5
1914.05	1177.5
1912.36	1162.5
1910.66	1173
1908.97	1162.5
1907.27	1183
1905.58	1147.5
1903.88	1140
1902.18	1168.5
1900.48	1122.5
1898.79	1117.5
1897.09	1098
1895.39	1088
1893.69	1090
1891.99	1090
1890.29	1074.5
1888.59	1076.5
1886.89	1062
1885.18	1065
1883.48	1054
1881.78	1042
1880.08	1046
1878.37	1058.5
1876.67	1025
1874.96	1028
1873.26	1044
1871.55	1012.5
1869.85	998.5
1868.14	1009
1866.44	1028
1864.73	983.5
1863.02	1008.5
1861.32	998.5
1859.61	998.5
1857.9	998.5
1856.19	997.5
1854.48	988.5
1852.77	976.5
1851.06	970
1849.35	968
1847.64	985
1845.93	984.5
1844.21	937.5
1842.5	961.5
1840.79	953.5
1839.08	936
1837.36	943
1835.65	923.5
1833.93	944
1832.22	912.5
1830.5	923
1828.79	943.5
1827.07	927.5
1825.36	904.5
1823.64	904.5
1821.92	884.5
1820.2	907.5
1818.48	888
1816.77	882
1815.05	872
1813.33	905
1811.61	873.5
1809.89	875.5
1808.16	875
1806.44	858
1804.72	854
1803	853
1801.28	834.5
1799.55	841.5
1797.83	850
1796.11	831.5
1794.38	839.5
1792.66	839
1790.93	824
1789.21	807.5
1787.48	837.5
1785.75	818.5
1784.03	808
1782.3	809
1780.57	813
1778.84	793
1777.11	830
1775.38	797
1773.66	808
1771.93	795
1770.19	783
1768.46	782.5
1766.73	786.5
1765	783.5
1763.27	780
1761.54	794
1759.8	790
1758.07	764.5
1756.34	795
1754.6	785.5
1752.87	780
1751.13	779.5
1749.4	766
1747.66	778
1745.92	779
1744.19	751
1742.45	757
1740.71	764
1738.97	749.5
1737.23	731.5
1735.49	753
1733.75	756.5
1732.01	739
1730.27	743.5
1728.53	749
1726.79	736.5
1725.05	726.5
1723.31	714.5
1721.57	717.5
1719.82	700.5
1718.08	709.5
1716.34	721
1714.59	703.5
1712.85	701
1711.1	695
1709.36	689
1707.61	686.5
1705.86	685
1704.12	690
1702.37	693.5
1700.62	669
1698.87	675
1697.12	668
1695.37	648
1693.62	668
1691.87	657
1690.12	661.5
1688.37	650
1686.62	654.5
1684.87	635
1683.12	659.5
1681.36	655
1679.61	638.5
1677.86	633
1676.1	626
1674.35	630.5
1672.59	646
1670.84	628.5
1669.08	635
1667.33	603
1665.57	636.5
1663.81	608.5
1662.06	613.5
1660.3	612
1658.54	607.5
1656.78	621.5
1655.02	593.5
1653.26	613
1651.5	606
1649.74	603.5
1647.98	582.5
1646.22	594
1644.46	585
1642.7	576.5
1640.93	585
1639.17	597.5
1637.41	581.5
1635.64	581.5
1633.88	581
1632.11	561.5
1630.35	575.5
1628.58	568
1626.81	557.5
1625.05	568.5
1623.28	564.5
1621.51	562.5
1619.75	552
1617.98	540.5
1616.21	534
1614.44	559
1612.67	549
1610.9	545
1609.13	536
1607.36	533.5
1605.58	537
1603.81	553
1602.04	524.5
1600.27	529
1598.49	527.5
1596.72	542.5
1594.95	542
1593.17	520
1591.4	530.5
1589.62	515
1587.84	504.5
1586.07	518
1584.29	513.5
1582.51	508.5
1580.74	520.5
1578.96	492.5
1577.18	505
1575.4	503
1573.62	492.5
1571.84	507.5
1570.06	500.5
1568.28	498.5
1566.5	492
1564.72	491
1562.93	489.5
1561.15	488.5
1559.37	476
1557.58	491.5
1555.8	478
1554.02	470
1552.23	474
1550.45	464
1548.66	462.5
1546.87	457.5
1545.09	447.5
1543.3	471
1541.51	451
1539.72	445
1537.94	450
1536.15	438
1534.36	444
1532.57	433.5
1530.78	455
1528.99	445
1527.2	442
1525.4	432
1523.61	428.5
1521.82	437.5
1520.03	447
1518.23	444.5
1516.44	436
1514.65	437
1512.85	436
1511.06	424.5
1509.26	422.5
1507.46	423.5
1505.67	426.5
1503.87	426.5
1502.07	418.5
1500.28	427.5
1498.48	412
1496.68	415
1494.88	423
1493.08	414.5
1491.28	412.5
1489.48	409.5
1487.68	403.5
1485.88	415.5
1484.08	416.5
1482.27	394.5
1480.47	387
1478.67	410
1476.86	406.5
1475.06	385.5
1473.25	387
1471.45	395
1469.64	382
1467.84	394
1466.03	387
1464.23	385
1462.42	392.5
1460.61	390
1458.8	392.5
1456.99	378
1455.18	377
1453.37	379.5
1451.56	375
1449.75	379
1447.94	357
1446.13	361.5
1444.32	369.5
1442.51	382
1440.7	372.5
1438.88	365.5
1437.07	352.5
1435.26	365.5
1433.44	366
1431.63	350
1429.81	355
1427.99	365.5
1426.18	355.5
1424.36	349.5
1422.54	362
1420.73	343
1418.91	354
1417.09	358.5
1415.27	341.5
1413.45	338
1411.63	349
1409.81	343
1407.99	332
1406.17	342.5
1404.35	334
1402.53	342
1400.7	340
1398.88	336
1397.06	332.5
1395.23	323
1393.41	339.5
1391.58	328
1389.76	321
1387.93	334
1386.11	315
1384.28	309.5
1382.45	318
1380.62	315
1378.8	321.5
1376.97	325
1375.14	315
1373.31	322
1371.48	311
1369.65	313
1367.82	309.5
1365.99	309
1364.16	309.5
1362.32	302
1360.49	310
1358.66	311.5
1356.82	284.5
1354.99	295.5
1353.16	297
1351.32	304.5
1349.48	295
1347.65	286
1345.81	300
1343.98	286.5
1342.14	302.5
1340.3	296
1338.46	292
1336.62	278
1334.79	278.5
1332.95	278
1331.11	277.5
1329.27	290
1327.42	279
1325.58	275.5
1323.74	282
1321.9	272
1320.06	287
1318.21	272.5
1316.37	280.5
1314.53	273
1312.68	277
1310.84	271
1308.99	264.5
1307.15	278
1305.3	269.5
1303.45	267
1301.61	271
1299.76	262.5
1297.91	257
1296.06	250
1294.21	249.5
1292.36	251.5
1290.51	255
1288.66	253
1286.81	255.5
1284.96	259
1283.11	250
1281.26	241.5
1279.4	242
1277.55	258
1275.7	250.5
1273.84	250
1271.99	241.5
1270.13	233
1268.28	234.5
1266.42	238
1264.56	241.5
1262.71	241
1260.85	242.5
1258.99	234
1257.13	235
1255.27	236.5
1253.41	222.5
1251.56	229.5
1249.7	226
1247.83	234.5
1245.97	238
1244.11	230
1242.25	224.5
1240.39	228
1238.52	227
1236.66	225
1234.8	215
1232.93	225.5
1231.07	221
1229.2	222
1227.34	227.5
1225.47	216.5
1223.6	224.5
1221.74	215.5
1219.87	218
1218	220
1216.13	219
1214.26	211.5
1212.39	215.5
1210.53	200.5
1208.65	213
1206.78	207
1204.91	202.5
1203.04	207.5
1201.17	207
1199.3	199
1197.42	202
1195.55	199
1193.68	205
1191.8	200
1189.93	197
1188.05	210
1186.17	203
1184.3	192
1182.42	201.5
1180.54	195.5
1178.67	187
1176.79	192.5
1174.91	195
1173.03	183
1171.15	196
1169.27	198
1167.39	200
1165.51	194
1163.63	189.5
1161.75	193
1159.86	194.5
1157.98	182
1156.1	188
1154.21	190.5
1152.33	194
1150.44	188
1148.56	187.5
1146.67	183.5
1144.79	179.5
1142.9	181
1141.01	184.5
1139.12	184.5
1137.24	183
1135.35	194
1133.46	180.5
1131.57	183
1129.68	182
1127.79	184
1125.9	185
1124.01	180.5
1122.12	172.5
1120.22	181
1118.33	175.5
1116.44	191.5
1114.54	178
1112.65	168
1110.75	175.5
1108.86	178.5
1106.96	180.5
1105.07	176
1103.17	158.5
1101.27	182.5
1099.38	168
1097.48	173
1095.58	159.5
1093.68	163.5
1091.78	172
1089.88	163
1087.98	174.5
1086.08	158
1084.18	158
1082.28	165
1080.38	164
1078.47	160
1076.57	155
1074.67	152
1072.76	160.5
1070.86	148
1068.95	150.5
1067.05	153
1065.14	163
1063.24	150
1061.33	157.5
1059.42	152
1057.51	152.5
1055.6	152
1053.7	151
1051.79	152.5
1049.88	154
1047.97	157
1046.06	151
1044.14	155
1042.23	143.5
1040.32	150.5
1038.41	153
1036.5	154
1034.58	144
1032.67	150.5
1030.75	162
1028.84	151.5
1026.92	158
1025.01	151.5
1023.09	170
1021.17	159
1019.26	147.5
1017.34	157
1015.42	163
1013.5	169.5
1011.58	161
1009.66	159.5
1007.74	160
1005.82	162
1003.9	173.5
1001.98	171.5
1000.06	178
998.134	161
996.212	175
994.288	176
992.364	199
990.44	196
988.515	203.5
986.589	207
984.663	222.5
982.737	202.5
980.81	202
978.883	223
976.955	213.5
975.027	213.5
973.098	225
971.169	225
969.239	222
967.308	226.5
965.378	229
963.447	226.5
961.516	206.5
959.583	230
957.65	221
955.718	234.5
953.784	240.5
951.85	225
949.916	235.5
947.981	243.5
946.045	256
944.109	242
942.173	263
940.236	248
938.298	253.5
936.36	246.5
934.422	234
932.484	201
930.544	194
928.604	179
926.664	164.5
924.724	158
922.782	156.5
920.84	153.5
918.898	149
916.955	143.5
915.012	142.5
913.068	137
911.124	141.5
909.18	141.5
907.235	143
905.289	143.5
903.343	149.5
901.397	140.5
899.45	139
897.502	136.5
895.554	136
893.605	138.5
891.657	135.5
889.707	138.5
887.758	134.5
885.807	126.5
883.856	138
881.905	133
879.953	140
878.001	140
876.048	149.5
874.094	140.5
872.14	126.5
870.186	138
868.232	137.5
866.276	129.5
864.321	131
862.365	146
860.408	130
858.451	129
856.493	128
854.535	132.5
852.576	125.5
850.617	128
848.658	125.5
846.698	123
844.737	134
842.776	125
840.814	115.5
838.852	132
836.89	122.5
834.927	127.5
832.963	119
830.999	125
829.035	131
827.07	121.5
825.105	119.5
823.139	129
821.172	138
819.206	121.5
817.238	125
815.27	110
813.301	132.5
811.333	129.5
809.363	118
807.394	123
805.424	114.5
803.453	117.5
801.482	112.5
799.509	120
797.538	116
795.565	121.5
793.592	119
791.618	119
789.643	116
787.669	120
785.693	107.5
783.718	115
781.742	112.5
779.765	117.5
777.788	115
775.811	114
773.832	113
771.853	119
769.875	114
767.895	109
765.915	113.5
763.934	111
761.953	106
759.972	120.5
757.99	101
756.007	108
754.024	109
752.041	110
750.056	115
748.072	110.5
746.087	115
744.102	118.5
742.116	110
740.13	119
738.143	104
736.155	102
734.167	105
732.179	104
730.19	108
728.2	110.5
726.21	102
724.22	113
722.229	106.5
720.237	107.5
718.246	109
716.253	100
714.26	107
712.267	108
710.273	108
708.279	115
706.284	105
704.289	112
702.293	111
700.296	119
698.3	109.5
696.303	109
694.305	114.5
692.307	112.5
690.307	105.5
688.308	117
686.309	118
684.308	109.5
682.308	123.5
680.306	122
678.304	122
676.302	122.5
674.3	119
672.296	118
670.293	120
668.289	125.5
666.284	123
664.278	125.5
662.273	119.5
660.266	129
658.26	131.5
656.252	130
654.244	129
652.237	126
650.227	116
648.218	130.5
646.209	121
644.198	124
642.188	118
640.177	123.5
638.165	121
636.153	126
634.14	138
632.128	134
630.113	132
628.099	137
626.085	128.5
624.07	126.5
622.054	130.5
620.038	129
618.021	129.5
616.004	130
613.986	125
611.968	121.5
609.949	119.5
607.93	104
605.911	126
603.891	124
601.87	118
599.848	112
597.827	119.5
595.805	118
593.782	116.5
591.759	110.5
589.735	114
587.711	113
585.687	109.5
583.661	124.5
581.636	122.5
579.609	117
577.583	120.5
575.555	124.5
573.527	125
571.5	125.5
569.471	122.5
567.441	135
565.412	128.5
563.382	130.5
561.351	141
559.32	130
557.289	138.5
555.257	143
553.223	141.5
551.19	153.5
549.157	164.5
547.122	169
545.088	187.5
543.053	190
541.017	209.5
538.981	242
536.943	273.5
534.907	335.5
532.869	453
530.831	639
528.792	978.5
526.752	1554
524.713	2405
522.673	3199
520.632	3209.5
518.591	2699
516.549	1931
514.507	1267
512.464	822
510.42	510.5
508.377	381.5
506.332	299.5
504.288	247.5
502.242	216.5
500.196	203.5
498.15	183.5
496.104	177.5
494.056	176
492.008	170.5
489.96	167
487.911	157.5
485.862	155
483.812	152.5
481.761	140.5
479.71	158
477.659	143
475.607	146
473.555	137
471.502	137
469.448	127
467.395	123.5
465.34	130
463.285	119
461.23	133
459.174	127
457.118	119
455.061	122
453.003	134.5
450.945	135
448.887	143.5
446.828	131
444.768	142
442.708	144
440.647	149
438.587	147.5
436.525	148
434.463	151
432.4	147
430.337	154
428.274	142
426.21	144.5
424.145	142
422.079	148
420.014	140.5
417.948	147
415.882	151
413.814	150.5
411.746	145.5
409.679	139.5
407.609	139.5
405.54	132.5
403.47	146
401.401	149.5
399.329	144
397.258	145.5
395.187	143
393.114	138
391.041	155.5
388.968	141.5
386.895	156
384.82	146
382.745	136
380.67	141
378.594	151
376.517	147
374.44	145.5
372.363	137
370.286	153
368.207	144
366.128	164.5
364.049	154
361.969	149.5
359.888	155.5
357.807	155.5
355.725	147.5
353.643	159.5
351.561	148
349.477	161.5
347.394	159
345.31	154
343.226	161
341.141	150
339.055	164
336.968	157.5
334.882	176
332.795	180.5
330.707	169.5
328.618	179
326.53	164.5
324.44	181
322.351	192
320.26	201
318.17	204
316.078	210
313.987	213.5
311.895	239.5
309.802	248
307.708	253
305.614	273.5
303.52	265.5
301.425	262
299.329	252
297.233	242.5
295.137	221.5
293.039	210
290.942	198
288.844	201.5
286.745	178
284.647	181
282.546	175
280.446	173.5
278.346	175
276.245	163
274.143	162
272.041	165
269.939	159
267.835	148
265.731	162.5
263.627	145.5
261.522	161
259.417	152
257.311	151.5
255.204	155
253.098	149.5
250.99	154
248.882	145
246.774	147
244.664	148.5
242.555	148
240.445	148
238.334	148.5
236.223	142.5
234.112	148.5
232	138.5
229.888	149
227.775	149.5
225.661	153.5
223.546	143
221.431	142
219.316	132.5
217.201	138.5
215.084	133
212.967	133
210.85	135
208.732	134
206.614	129.5
204.495	134
202.375	120.5
200.256	126.5
198.135	135.5
196.014	132
193.893	136.5
191.771	133.5
189.648	134
187.525	139
185.401	146
183.277	139.5
181.152	143
179.027	139.5
176.901	139.5
174.775	137
172.648	138
170.521	151.5
168.393	154
166.265	159
164.136	157
162.007	163.5
159.876	159.5
157.746	157.5
155.615	157.5
153.483	166.5
151.351	175
149.219	168
147.086	178.5
144.952	197.5
142.818	195
140.684	194
138.548	191.5
136.413	215.5
134.276	205
132.139	211
130.002	206.5
127.864	220
125.725	224.5
123.587	229
121.447	227.5
119.307	245
117.166	242
115.026	246
112.885	248
110.743	264
108.6	272.5
106.456	263.5
104.313	279.5
102.169	268.5
100.023	262.5
97.8789	240
95.7328	221
93.5869	205
91.4392	182
89.2919	152.5
87.1447	123
84.9959	92
