3528.51	193
3527.23	217
3525.95	198
3524.67	225.5
3523.39	223
3522.1	231
3520.82	227.5
3519.54	225.5
3518.26	224.5
3516.97	241
3515.69	229
3514.4	231
3513.12	229
3511.84	221.5
3510.55	226.5
3509.26	226
3507.98	242
3506.69	237
3505.41	243.5
3504.12	231.5
3502.83	245.5
3501.54	242.5
3500.26	242.5
3498.97	250
3497.68	257.5
3496.39	252.5
3495.1	269.5
3493.81	274
3492.52	277.5
3491.23	280
3489.94	280.5
3488.65	288
3487.36	298
3486.07	295
3484.78	291
3483.49	291
3482.19	321
3480.9	304
3479.61	312.5
3478.31	317
3477.02	321.5
3475.73	314.5
3474.43	326.5
3473.14	335
3471.84	325.5
3470.54	335
3469.25	342.5
3467.95	338.5
3466.66	351.5
3465.36	349
3464.06	339.5
3462.76	332
3461.46	352
3460.17	359.5
3458.87	356.5
3457.57	360
3456.27	357
3454.97	359.5
3453.67	373
3452.37	379
3451.07	378
3449.77	363
3448.47	382.5
3447.16	392
3445.86	389
3444.56	395
3443.26	400.5
3441.95	401
3440.65	400
3439.35	427.5
3438.04	421
3436.74	436
3435.43	438
3434.13	460
3432.82	475.5
3431.52	461.5
3430.21	474
3428.9	481.5
3427.6	502
3426.29	513
3424.98	512
3423.67	521.5
3422.36	532.5
3421.06	530
3419.75	546
3418.44	542
3417.13	562.5
3415.82	566
3414.51	559
3413.2	586.5
3411.88	590.5
3410.57	594
3409.26	591.5
3407.95	600.5
3406.64	603.5
3405.32	607
3404.01	588
3402.7	612
3401.38	620
3400.07	627.5
3398.75	625.5
3397.44	624.5
3396.12	647
3394.81	639
3393.49	654
3392.18	654
3390.86	669
3389.54	659
3388.23	690.5
3386.91	676.5
3385.59	702.5
3384.27	691
3382.95	715
3381.63	708.5
3380.31	718.5
3378.99	724
3377.67	723.5
3376.35	734.5
3375.03	717
3373.71	738
3372.39	753
3371.07	760.5
3369.75	757.5
3368.42	766
3367.1	772
3365.78	766
3364.45	792.5
3363.13	795
3361.81	800.5
3360.48	798.5
3359.16	807.5
3357.83	820.5
3356.51	816.5
3355.18	818.5
3353.85	834
3352.53	841
3351.2	818
3349.87	830
3348.54	843.5
3347.22	849
3345.89	831
3344.56	832.5
3343.23	853
3341.9	862
3340.57	852.5
3339.24	862
3337.91	861.5
3336.58	873.5
3335.25	870
3333.92	872
3332.58	877
3331.25	883
3329.92	882
3328.59	883
3327.25	904
3325.92	890
3324.58	911
3323.25	889
3321.92	907.5
3320.58	895
3319.25	905.5
3317.91	928
3316.57	922
3315.24	934
3313.9	937.5
3312.56	911
3311.23	938.5
3309.89	926.5
3308.55	935
3307.21	951.5
3305.87	945
3304.53	966
3303.19	971
3301.85	961
3300.51	994
3299.17	970
3297.83	994.5
3296.49	999.5
3295.15	982
3293.81	999.5
3292.46	1003.5
3291.12	1007
3289.78	1018
3288.43	1012.5
3287.09	1012.5
3285.75	994.5
3284.4	1020.5
3283.06	1024
3281.71	1027
3280.37	1031.5
3279.02	1022.5
3277.67	1034.5
3276.33	1044.5
3274.98	1050.5
3273.63	1052
3272.28	1070
3270.94	1058.5
3269.59	1087.5
3268.24	1102.5
3266.89	1108
3265.54	1133
3264.19	1118.5
3262.84	1146.5
3261.49	1179
3260.14	1186
3258.79	1167
3257.44	1212
3256.08	1242.5
3254.73	1265.5
3253.38	1256
3252.03	1337
3250.67	1329
3249.32	1378
3247.96	1402.5
3246.61	1443.5
3245.26	1490
3243.9	1536
3242.54	1521
3241.19	1582
3239.83	1592
3238.48	1683.5
3237.12	1735
3235.76	1775
3234.41	1807.5
3233.05	1874
3231.69	1873.5
3230.33	1945.5
3228.97	1977.5
3227.61	2013.5
3226.25	2051.5
3224.89	2082.5
3223.53	2124.5
3222.17	2140
3220.81	2203.5
3219.45	2193
3218.09	2237
3216.72	2252
3215.36	2278
3214	2292
3212.63	2335.5
3211.27	2334.5
3209.91	2373
3208.54	2401
3207.18	2431.5
3205.81	2398
3204.45	2424
3203.08	2434.5
3201.71	2448
3200.35	2448
3198.98	2466
3197.61	2511
3196.25	2504.5
3194.88	2539.5
3193.51	2544.5
3192.14	2539
3190.77	2534.5
3189.4	2544.5
3188.03	2555
3186.66	2565
3185.29	2614
3183.92	2596
3182.55	2628
3181.18	2641.5
3179.81	2647.5
3178.44	2635.5
3177.06	2688
3175.69	2739.5
3174.32	2738.5
3172.94	2762
3171.57	2797
3170.2	2795.5
3168.82	2788
3167.45	2814
3166.07	2858.5
3164.69	2839.5
3163.32	2903.5
3161.94	2866
3160.56	2907
3159.19	2947.5
3157.81	2982.5
3156.43	3011
3155.05	3000.5
3153.67	3060
3152.3	3041.5
3150.92	3089.5
3149.54	3079.5
3148.16	3147.5
3146.78	3151
3145.4	3128
3144.01	3162.5
3142.63	3195.5
3141.25	3236.5
3139.87	3234
3138.49	3238
3137.1	3256.5
3135.72	3305.5
3134.34	3337.5
3132.95	3357
3131.57	3374.5
3130.18	3370
3128.8	3385
3127.41	3434.5
3126.03	3430
3124.64	3528.5
3123.25	3495.5
3121.87	3528.5
3120.48	3526
3119.09	3560
3117.7	3577.5
3116.32	3564
3114.93	3631
3113.54	3669
3112.15	3690.5
3110.76	3650.5
3109.37	3679
3107.98	3746.5
3106.59	3745
3105.2	3714
3103.8	3801
3102.41	3768
3101.02	3802
3099.63	3799.5
3098.23	3849.5
3096.84	3851
3095.45	3874
3094.05	3866
3092.66	3875.5
3091.26	3948.5
3089.87	3919
3088.47	3927
3087.08	3919.5
3085.68	3929.5
3084.28	3963.5
3082.89	3982.5
3081.49	4020
3080.09	3989
3078.69	4002.5
3077.3	4020.5
3075.9	4027
3074.5	4021.5
3073.1	3991
3071.7	4020
3070.3	4069
3068.9	4027
3067.5	4064
3066.09	4077.5
3064.69	4082
3063.29	4092
3061.89	4084.5
3060.48	4087.5
3059.08	4079
3057.68	4130
3056.27	4105.5
3054.87	4163.5
3053.46	4146
3052.06	4181.5
3050.65	4211.5
3049.25	4206
3047.84	4197
3046.44	4237
3045.03	4270
3043.62	4258.5
3042.21	4271.5
3040.81	4288.5
3039.4	4296.5
3037.99	4256
3036.58	4310
3035.17	4282.5
3033.76	4362
3032.35	4345.5
3030.94	4369
3029.53	4381
3028.12	4395
3026.71	4400
3025.29	4381.5
3023.88	4382.5
3022.47	4410.5
3021.06	4417
3019.64	4423.5
3018.23	4394
3016.82	4393
3015.4	4391
3013.99	4394.5
3012.57	4446
3011.15	4389
3009.74	4422
3008.32	4468
3006.91	4492
3005.49	4448.5
3004.07	4449.5
3002.65	4506.5
3001.24	4506.5
2999.82	4510
2998.4	4502
2996.98	4580
2995.56	4565
2994.14	4616.5
2992.72	4595
2991.3	4621
2989.88	4646
2988.46	4696.5
2987.03	4707
2985.61	4722.5
2984.19	4750.5
2982.77	4766.5
2981.34	4813
2979.92	4825.5
2978.49	4897.5
2977.07	4875
2975.65	4873
2974.22	4896
2972.79	4907
2971.37	4937.5
2969.94	4946.5
2968.52	4967
2967.09	5033.5
2965.66	5054
2964.23	4966
2962.81	5025
2961.38	5039.5
2959.95	4994
2958.52	5035.5
2957.09	5023.5
2955.66	5048.5
2954.23	5065
2952.8	5103.5
2951.37	5092.5
2949.94	5052
2948.5	5062
2947.07	5102.5
2945.64	5117.5
2944.21	5140
2942.77	5105.5
2941.34	5121
2939.91	5203.5
2938.47	5149
2937.04	5121
2935.6	5209.5
2934.17	5162.5
2932.73	5223.5
2931.29	5234.5
2929.86	5217.5
2928.42	5267.5
2926.98	5291
2925.55	5272
2924.11	5302
2922.67	5290
2921.23	5328
2919.79	5331
2918.35	5335
2916.91	5327.5
2915.47	5314
2914.03	5338
2912.59	5316.5
2911.15	5339
2909.71	5389
2908.26	5352
2906.82	5382.5
2905.38	5403.5
2903.94	5421
2902.49	5404
2901.05	5382.5
2899.6	5410.5
2898.16	5462
2896.71	5415.5
2895.27	5419
2893.82	5466
2892.38	5467.5
2890.93	5488
2889.48	5488.5
2888.03	5500.5
2886.59	5495
2885.14	5489
2883.69	5499.5
2882.24	5515.5
2880.79	5494.5
2879.34	5511.5
2877.89	5522.5
2876.44	5548
2874.99	5576.5
2873.54	5508.5
2872.09	5573
2870.64	5590.5
2869.18	5577
2867.73	5571.5
2866.28	5526.5
2864.83	5582
2863.37	5591.5
2861.92	5564
2860.46	5575
2859.01	5570
2857.55	5579
2856.1	5585.5
2854.64	5600
2853.19	5556
2851.73	5603
2850.27	5536.5
2848.81	5613
2847.36	5584.5
2845.9	5524.5
2844.44	5597.5
2842.98	5587.5
2841.52	5596
2840.06	5567
2838.6	5568.5
2837.14	5597.5
2835.68	5597
2834.22	5590
2832.76	5593
2831.3	5615.5
2829.83	5618.5
2828.37	5615.5
2826.91	5606.5
2825.44	5554
2823.98	5617
2822.52	5570
2821.05	5515.5
2819.59	5553.5
2818.12	5557
2816.66	5526.5
2815.19	5538.5
2813.72	5533
2812.26	5527
2810.79	5538.5
2809.32	5543
2807.85	5538
2806.38	5559
2804.92	5468.5
2803.45	5478
2801.98	5483
2800.51	5437.5
2799.04	5462.5
2797.57	5482
2796.1	5494
2794.62	5443.5
2793.15	5397.5
2791.68	5459
2790.21	5461
2788.73	5421.5
2787.26	5390.5
2785.79	5451.5
2784.31	5461.5
2782.84	5431
2781.36	5436
2779.89	5482
2778.41	5443
2776.94	5491
2775.46	5526.5
2773.99	5518.5
2772.51	5481.5
2771.03	5582
2769.55	5525.5
2768.07	5568
2766.6	5588
2765.12	5568
2763.64	5598.5
2762.16	5614
2760.68	5622
2759.2	5603
2757.72	5564.5
2756.24	5637
2754.75	5585
2753.27	5562
2751.79	5611.5
2750.31	5605
2748.82	5567
2747.34	5489.5
2745.86	5560.5
2744.37	5534.5
2742.89	5565.5
2741.4	5569.5
2739.92	5533.5
2738.43	5540.5
2736.94	5520.5
2735.46	5506
2733.97	5519
2732.48	5520
2731	5496
2729.51	5501
2728.02	5531
2726.53	5556.5
2725.04	5468.5
2723.55	5476.5
2722.06	5473.5
2720.57	5452.5
2719.08	5472.5
2717.59	5457.5
2716.1	5535
2714.61	5548
2713.11	5534.5
2711.62	5512.5
2710.13	5540
2708.64	5559.5
2707.14	5542.5
2705.65	5516.5
2704.15	5535.5
2702.66	5468
2701.16	5497.5
2699.67	5486.5
2698.17	5492.5
2696.67	5509
2695.18	5502
2693.68	5490.5
2692.18	5485.5
2690.69	5432.5
2689.19	5454.5
2687.69	5461
2686.19	5465.5
2684.69	5385.5
2683.19	5381.5
2681.69	5425
2680.19	5386.5
2678.69	5354
2677.19	5337
2675.68	5380.5
2674.18	5300
2672.68	5324
2671.18	5375.5
2669.67	5308.5
2668.17	5314
2666.66	5325
2665.16	5343
2663.66	5263.5
2662.15	5299.5
2660.64	5290
2659.14	5264
2657.63	5270
2656.13	5249.5
2654.62	5238.5
2653.11	5234.5
2651.6	5230.5
2650.09	5233
2648.58	5211.5
2647.08	5169
2645.57	5205
2644.06	5190.5
2642.55	5102
2641.04	5157.5
2639.52	5112.5
2638.01	5153
2636.5	5111.5
2634.99	5124.5
2633.48	5041.5
2631.96	5055
2630.45	5039.5
2628.94	5078
2627.42	5012.5
2625.91	5020
2624.39	4995.5
2622.88	4994
2621.36	5024.5
2619.85	5054
2618.33	5030.5
2616.81	4980.5
2615.3	5004.5
2613.78	5002.5
2612.26	5016
2610.74	5024
2609.22	4960
2607.7	5001
2606.18	4935.5
2604.66	4975
2603.14	4928
2601.62	4919
2600.1	4883
2598.58	4869.5
2597.06	4872
2595.54	4825.5
2594.01	4791.5
2592.49	4806
2590.97	4798
2589.44	4798
2587.92	4806.5
2586.39	4751
2584.87	4759
2583.34	4770
2581.82	4728.5
2580.29	4751.5
2578.76	4767
2577.24	4715.5
2575.71	4750
2574.18	4733
2572.65	4708.5
2571.13	4732.5
2569.6	4724
2568.07	4645
2566.54	4672.5
2565.01	4679.5
2563.48	4663.5
2561.95	4728
2560.42	4741.5
2558.88	4669.5
2557.35	4661
2555.82	4625.5
2554.29	4620.5
2552.75	4633
2551.22	4616
2549.69	4592
2548.15	4612.5
2546.62	4596
2545.08	4556.5
2543.55	4549
2542.01	4577.5
2540.47	4497
2538.94	4574.5
2537.4	4537
2535.86	4485
2534.33	4488
2532.79	4461.5
2531.25	4466.5
2529.71	4432
2528.17	4415.5
2526.63	4447
2525.09	4388.5
2523.55	4391
2522.01	4383
2520.47	4366
2518.92	4325
2517.38	4349.5
2515.84	4308.5
2514.3	4329.5
2512.75	4316
2511.21	4313.5
2509.67	4300
2508.12	4301.5
2506.58	4276
2505.03	4265.5
2503.49	4242
2501.94	4270
2500.39	4263.5
2498.85	4257
2497.3	4237.5
2495.75	4204.5
2494.2	4170
2492.65	4175.5
2491.11	4184
2489.56	4162.5
2488.01	4121
2486.46	4091.5
2484.91	4092
2483.36	4125
2481.8	4085
2480.25	4130
2478.7	4061.5
2477.15	4077.5
2475.6	4016
2474.04	4053
2472.49	4014
2470.93	3961.5
2469.38	3964
2467.83	3957.5
2466.27	3947
2464.71	3919
2463.16	3896.5
2461.6	3843.5
2460.05	3867
2458.49	3853
2456.93	3797.5
2455.37	3840
2453.81	3824
2452.26	3781
2450.7	3788
2449.14	3798.5
2447.58	3740.5
2446.02	3680
2444.46	3658.5
2442.9	3698
2441.33	3666
2439.77	3659.5
2438.21	3679.5
2436.65	3635.5
2435.08	3657
2433.52	3668
2431.96	3649
2430.39	3666.5
2428.83	3646.5
2427.26	3642
2425.7	3559
2424.13	3590.5
2422.56	3626.5
2421	3563
2419.43	3598
2417.86	3567
2416.3	3543.5
2414.73	3511.5
2413.16	3551.5
2411.59	3498.5
2410.02	3481.5
2408.45	3510.5
2406.88	3506.5
2405.31	3493.5
2403.74	3483
2402.17	3482.5
2400.6	3466
2399.02	3478
2397.45	3433.5
2395.88	3443
2394.3	3424.5
2392.73	3432
2391.16	3411
2389.58	3428.5
2388.01	3429
2386.43	3409
2384.86	3367.5
2383.28	3400
2381.7	3403.5
2380.13	3390
2378.55	3385
2376.97	3348.5
2375.39	3363
2373.81	3354
2372.23	3350.5
2370.65	3392.5
2369.07	3317
2367.49	3314.5
2365.91	3363
2364.33	3335
2362.75	3319
2361.17	3282.5
2359.59	3285.5
2358.01	3251
2356.42	3318.5
2354.84	3294
2353.25	3280
2351.67	3301.5
2350.09	3282.5
2348.5	3281
2346.92	3249
2345.33	3297.5
2343.74	3268
2342.16	3232.5
2340.57	3324
2338.98	3229
2337.39	3206.5
2335.81	3201.5
2334.22	3210
2332.63	3197
2331.04	3185
2329.45	3172.5
2327.86	3183
2326.27	3160
2324.68	3172
2323.09	3126.5
2321.49	3140.5
2319.9	3126.5
2318.31	3116.5
2316.72	3106.5
2315.12	3088
2313.53	3100.5
2311.93	3091.5
2310.34	3105
2308.74	3085
2307.15	3043.5
2305.55	3034.5
2303.96	3017
2302.36	3016
2300.76	2999
2299.17	3019
2297.57	2968.5
2295.97	2958
2294.37	2969.5
2292.77	2920
2291.17	2943.5
2289.57	2920
2287.97	2902
2286.37	2901
2284.77	2845
2283.17	2914.5
2281.57	2877.5
2279.96	2881.5
2278.36	2865.5
2276.76	2890.5
2275.15	2864
2273.55	2841.5
2271.95	2809.5
2270.34	2846.5
2268.74	2811.5
2267.13	2813.5
2265.52	2784
2263.92	2774
2262.31	2742.5
2260.7	2749
2259.1	2725
2257.49	2743
2255.88	2739
2254.27	2736.5
2252.66	2710.5
2251.05	2731.5
2249.44	2721
2247.83	2720.5
2246.22	2717
2244.61	2724.5
2243	2727
2241.39	2730
2239.77	2692.5
2238.16	2688.5
2236.55	2668
2234.93	2633.5
2233.32	2635.5
2231.7	2625.5
2230.09	2584
2228.47	2613
2226.86	2565.5
2225.24	2548.5
2223.63	2596
2222.01	2577
2220.39	2586
2218.77	2538.5
2217.16	2523
2215.54	2528
2213.92	2517
2212.3	2510.5
2210.68	2504.5
2209.06	2486
2207.44	2453.5
2205.82	2451.5
2204.19	2466
2202.57	2456
2200.95	2448.5
2199.33	2391.5
2197.7	2442.5
2196.08	2453
2194.46	2415.5
2192.83	2374
2191.21	2443.5
2189.58	2378.5
2187.96	2413
2186.33	2348
2184.7	2373
2183.08	2363
2181.45	2365.5
2179.82	2346
2178.19	2366
2176.57	2343.5
2174.94	2291
2173.31	2292
2171.68	2319.5
2170.05	2292.5
2168.42	2297.5
2166.79	2287.5
2165.16	2296.5
2163.52	2268.5
2161.89	2251.5
2160.26	2271.5
2158.63	2218
2156.99	2223.5
2155.36	2223.5
2153.73	2242.5
2152.09	2196.5
2150.46	2178
2148.82	2183.5
2147.18	2192
2145.55	2160
2143.91	2184.5
2142.27	2165.5
2140.64	2174
2139	2115.5
2137.36	2119
2135.72	2170.5
2134.08	2110.5
2132.44	2100
2130.8	2103
2129.16	2139
2127.52	2072
2125.88	2080.5
2124.24	2027
2122.6	2020
2120.95	2034
2119.31	2008
2117.67	2003.5
2116.02	2013.5
2114.38	2015
2112.74	2022.5
2111.09	1976.5
2109.45	1971.5
2107.8	1991
2106.15	1957
2104.51	1975.5
2102.86	1938
2101.21	1970
2099.56	1928.5
2097.92	1973.5
2096.27	1934
2094.62	1893.5
2092.97	1912
2091.32	1940.5
2089.67	1894.5
2088.02	1876.5
2086.37	1902
2084.72	1903
2083.06	1877
2081.41	1879
2079.76	1883.5
2078.1	1874
2076.45	1880
2074.8	1888.5
2073.14	1879
2071.49	1862.5
2069.83	1858
2068.18	1881.5
2066.52	1858.5
2064.86	1828.5
2063.21	1857
2061.55	1818
2059.89	1831.5
2058.23	1825
2056.57	1810
2054.92	1839
2053.26	1831.5
2051.6	1804
2049.94	1795
2048.27	1798.5
2046.61	1788
2044.95	1785
2043.29	1753.5
2041.63	1771.5
2039.97	1764.5
2038.3	1746.5
2036.64	1712
2034.97	1713
2033.31	1724.5
2031.64	1707.5
2029.98	1700
2028.31	1695
2026.65	1668
2024.98	1672
2023.31	1650.5
2021.65	1652.5
2019.98	1642
2018.31	1608
2016.64	1603
2014.97	1617.5
2013.3	1609
2011.63	1610
2009.96	1577
2008.29	1589.5
2006.62	1578.5
2004.95	1586
2003.28	1593.5
2001.6	1591
1999.93	1575
1998.26	1559
1996.58	1593.5
1994.91	1580
1993.24	1565.5
1991.56	1549
1989.89	1550
1988.21	1542.5
1986.53	1537.5
1984.86	1535.5
1983.18	1539.5
1981.5	1521.5
1979.82	1514
1978.15	1505.5
1976.47	1498.5
1974.79	1511.5
1973.11	1459.5
1971.43	1483.5
1969.75	1453
1968.07	1473
1966.38	1445.5
1964.7	1445
1963.02	1440
1961.34	1415
1959.66	1410.5
1957.97	1404.5
1956.29	1420
1954.6	1407.5
1952.92	1424
1951.23	1408.5
1949.55	1380.5
1947.86	1385
1946.18	1393
1944.49	1376
1942.8	1359
1941.11	1363
1939.43	1343.5
1937.74	1353
1936.05	1340
1934.36	1357.5
1932.67	1351
1930.98	1324.5
1929.29	1322.5
1927.6	1313.5
1925.91	1314
1924.21	1300.5
1922.52	1307
1920.83	1303.5
1919.14	1297
1917.44	1258
1915.75	1288
1914.05	1286
1912.36	1282.5
1910.66	1260.5
1908.97	1253.5
1907.27	1272.5
1905.58	1247
1903.88	1232.5
1902.18	1255.5
1900.48	1248.5
1898.79	1240
1897.09	1218.5
1895.39	1215
1893.69	1199
1891.99	1231.5
1890.29	1198.5
1888.59	1187.5
1886.89	1161.5
1885.18	1192.5
1883.48	1166
1881.78	1155
1880.08	1162
1878.37	1145
1876.67	1149
1874.96	1127
1873.26	1117.5
1871.55	1128.5
1869.85	1111
1868.14	1087
1866.44	1083.5
1864.73	1084
1863.02	1090
1861.32	1100
1859.61	1111
1857.9	1066
1856.19	1085
1854.48	1069.5
1852.77	1089
1851.06	1064
1849.35	1057
1847.64	1076
1845.93	1049.5
1844.21	1041.5
1842.5	1037
1840.79	1048.5
1839.08	1053
1837.36	1034.5
1835.65	1024.5
1833.93	1028
1832.22	1035.5
1830.5	1020
1828.79	1019.5
1827.07	1023
1825.36	1005.5
1823.64	973.5
1821.92	985.5
1820.2	979.5
1818.48	989
1816.77	971.5
1815.05	980
1813.33	968.5
1811.61	977.5
1809.89	982
1808.16	966.5
1806.44	954.5
1804.72	953
1803	948.5
1801.28	942
1799.55	947
1797.83	940
1796.11	934.5
1794.38	918.5
1792.66	922
1790.93	919.5
1789.21	893.5
1787.48	883.5
1785.75	894
1784.03	889
1782.3	887
1780.57	902
1778.84	861.5
1777.11	864
1775.38	885.5
1773.66	871
1771.93	867
1770.19	878.5
1768.46	869
1766.73	865.5
1765	860.5
1763.27	869
1761.54	849.5
1759.8	856.5
1758.07	857.5
1756.34	849
1754.6	856.5
1752.87	848
1751.13	839.5
1749.4	848.5
1747.66	852.5
1745.92	841
1744.19	846
1742.45	842
1740.71	819.5
1738.97	838
1737.23	827.5
1735.49	811
1733.75	816
1732.01	812.5
1730.27	818.5
1728.53	818.5
1726.79	813.5
1725.05	807
1723.31	803
1721.57	790.5
1719.82	775.5
1718.08	798.5
1716.34	776
1714.59	786
1712.85	756
1711.1	752.5
1709.36	758
1707.61	751.5
1705.86	755.5
1704.12	747
1702.37	733.5
1700.62	729.5
1698.87	738.5
1697.12	725
1695.37	727
1693.62	738
1691.87	710.5
1690.12	726.5
1688.37	704
1686.62	700
1684.87	691
1683.12	702.5
1681.36	712
1679.61	697
1677.86	699.5
1676.1	701.5
1674.35	679
1672.59	688
1670.84	699
1669.08	686.5
1667.33	680.5
1665.57	690.5
1663.81	682
1662.06	675
1660.3	668.5
1658.54	668
1656.78	691
1655.02	658.5
1653.26	657.5
1651.5	652
1649.74	641.5
1647.98	658
1646.22	663.5
1644.46	643
1642.7	661
1640.93	640
1639.17	655
1637.41	663.5
1635.64	648
1633.88	629
1632.11	631
1630.35	622.5
1628.58	615
1626.81	622.5
1625.05	605.5
1623.28	616.5
1621.51	591.5
1619.75	615
1617.98	601.5
1616.21	613.5
1614.44	596.5
1612.67	609
1610.9	582
1609.13	592
1607.36	590
1605.58	577.5
1603.81	577.5
1602.04	595
1600.27	595
1598.49	592
1596.72	589
1594.95	575.5
1593.17	579
1591.4	566.5
1589.62	573
1587.84	577
1586.07	585.5
1584.29	574
1582.51	553.5
1580.74	564
1578.96	568.5
1577.18	559
1575.4	559
1573.62	539
1571.84	553.5
1570.06	542.5
1568.28	537
1566.5	542
1564.72	550
1562.93	528.5
1561.15	527.5
1559.37	533.5
1557.58	535.5
1555.8	519.5
1554.02	538.5
1552.23	530
1550.45	542
1548.66	517
1546.87	513.5
1545.09	498
1543.3	508
1541.51	501.5
1539.72	528.5
1537.94	478.5
1536.15	510
1534.36	478.5
1532.57	483.5
1530.78	493.5
1528.99	474.5
1527.2	482
1525.4	493
1523.61	471
1521.82	491
1520.03	458
1518.23	474
1516.44	456.5
1514.65	465.5
1512.85	482.5
1511.06	464
1509.26	467.5
1507.46	481
1505.67	464.5
1503.87	459.5
1502.07	460
1500.28	465.5
1498.48	463
1496.68	456.5
1494.88	442
1493.08	454.5
1491.28	453
1489.48	449.5
1487.68	452
1485.88	447
1484.08	469
1482.27	447.5
1480.47	449
1478.67	456
1476.86	446.5
1475.06	435
1473.25	442.5
1471.45	433.5
1469.64	434
1467.84	434.5
1466.03	438
1464.23	430
1462.42	448
1460.61	425.5
1458.8	411.5
1456.99	428.5
1455.18	418
1453.37	418
1451.56	434
1449.75	414.5
1447.94	427
1446.13	423.5
1444.32	410
1442.51	398
1440.7	418.5
1438.88	409.5
1437.07	407
1435.26	400
1433.44	402
1431.63	410
1429.81	403
1427.99	396
1426.18	405.5
1424.36	409.5
1422.54	399.5
1420.73	397.5
1418.91	403.5
1417.09	393
1415.27	394.5
1413.45	391.5
1411.63	397.5
1409.81	392
1407.99	365
1406.17	386.5
1404.35	358.5
1402.53	369
1400.7	377.5
1398.88	385.5
1397.06	377
1395.23	373
1393.41	371.5
1391.58	375.5
1389.76	378.5
1387.93	362.5
1386.11	362
1384.28	375.5
1382.45	358
1380.62	367.5
1378.8	361.5
1376.97	358.5
1375.14	362.5
1373.31	356.5
1371.48	354.5
1369.65	352
1367.82	351.5
1365.99	348.5
1364.16	355.5
1362.32	338
1360.49	345.5
1358.66	331.5
1356.82	345
1354.99	338
1353.16	345
1351.32	337.5
1349.48	334
1347.65	337.5
1345.81	329
1343.98	332.5
1342.14	323
1340.3	312
1338.46	328
1336.62	316.5
1334.79	324.5
1332.95	325
1331.11	312
1329.27	317.5
1327.42	314.5
1325.58	312
1323.74	319.5
1321.9	301.5
1320.06	306
1318.21	313.5
1316.37	305.5
1314.53	317.5
1312.68	305.5
1310.84	303.5
1308.99	299.5
1307.15	303
1305.3	302
1303.45	314.5
1301.61	300
1299.76	301.5
1297.91	306
1296.06	293
1294.21	302.5
1292.36	303.5
1290.51	299.5
1288.66	289
1286.81	287
1284.96	290.5
1283.11	280
1281.26	289.5
1279.4	284.5
1277.55	268.5
1275.7	285.5
1273.84	284
1271.99	285.5
1270.13	276.5
1268.28	276
1266.42	271
1264.56	286
1262.71	280
1260.85	263.5
1258.99	255
1257.13	274.5
1255.27	260.5
1253.41	268.5
1251.56	262.5
1249.7	259.5
1247.83	270.5
1245.97	257
1244.11	262.5
1242.25	261.5
1240.39	259
1238.52	265.5
1236.66	253.5
1234.8	271.5
1232.93	269.5
1231.07	264.5
1229.2	255
1227.34	244
1225.47	256
1223.6	244.5
1221.74	253.5
1219.87	256.5
1218	258.5
1216.13	247.5
1214.26	248
1212.39	248
1210.53	229
1208.65	235.5
1206.78	240
1204.91	250.5
1203.04	239
1201.17	250
1199.3	246
1197.42	234.5
1195.55	240
1193.68	239.5
1191.8	239
1189.93	230
1188.05	235.5
1186.17	228.5
1184.3	240.5
1182.42	230.5
1180.54	227.5
1178.67	218.5
1176.79	228.5
1174.91	226
1173.03	229
1171.15	230.5
1169.27	227
1167.39	224.5
1165.51	217
1163.63	229.5
1161.75	221.5
1159.86	230.5
1157.98	231
1156.1	223
1154.21	220.5
1152.33	220
1150.44	209
1148.56	212.5
1146.67	226.5
1144.79	219.5
1142.9	224
1141.01	212
1139.12	220
1137.24	204
1135.35	210
1133.46	222
1131.57	220.5
1129.68	219
1127.79	207.5
1125.9	206
1124.01	220.5
1122.12	214
1120.22	205.5
1118.33	212.5
1116.44	219
1114.54	206.5
1112.65	208
1110.75	203.5
1108.86	206
1106.96	200
1105.07	208.5
1103.17	202
1101.27	205.5
1099.38	205.5
1097.48	197
1095.58	205
1093.68	202.5
1091.78	193.5
1089.88	207
1087.98	194.5
1086.08	193.5
1084.18	200
1082.28	197.5
1080.38	192
1078.47	192
1076.57	188.5
1074.67	181
1072.76	191
1070.86	185.5
1068.95	191
1067.05	188.5
1065.14	186.5
1063.24	182
1061.33	187
1059.42	190
1057.51	187
1055.6	188
1053.7	179.5
1051.79	181
1049.88	180.5
1047.97	190.5
1046.06	189
1044.14	180
1042.23	195
1040.32	188
1038.41	195.5
1036.5	185.5
1034.58	181.5
1032.67	187.5
1030.75	183.5
1028.84	189
1026.92	190.5
1025.01	192.5
1023.09	185
1021.17	190.5
1019.26	190
1017.34	198.5
1015.42	188.5
1013.5	182.5
1011.58	204.5
1009.66	199
1007.74	203
1005.82	205.5
1003.9	192
1001.98	204.5
1000.06	201.5
998.134	209.5
996.212	214.5
994.288	211.5
992.364	230.5
990.44	225
988.515	244
986.589	256
984.663	278.5
982.737	261.5
980.81	286
978.883	262
976.955	266.5
975.027	279.5
973.098	280
971.169	265
969.239	272
967.308	270
965.378	272
963.447	276.5
961.516	282.5
959.583	289.5
957.65	271.5
955.718	293
953.784	302
951.85	294
949.916	291
947.981	297
946.045	307
944.109	301.5
942.173	305.5
940.236	299
938.298	312
936.36	290.5
934.422	287
932.484	265
930.544	246
928.604	224
926.664	202
924.724	205
922.782	191
920.84	187
918.898	173
916.955	180
915.012	177
913.068	168
911.124	174
909.18	178
907.235	188
905.289	177.5
903.343	178.5
901.397	166.5
899.45	178.5
897.502	174
895.554	176.5
893.605	173.5
891.657	172
889.707	174
887.758	159
885.807	172.5
883.856	176
881.905	178
879.953	166.5
878.001	170
876.048	186
874.094	173.5
872.14	170.5
870.186	167.5
868.232	161
866.276	165.5
864.321	161
862.365	187
860.408	168.5
858.451	166
856.493	167
854.535	167.5
852.576	172
850.617	161.5
848.658	163
846.698	168.5
844.737	159.5
842.776	160.5
840.814	154
838.852	163
836.89	153.5
834.927	168
832.963	149
830.999	158.5
829.035	155.5
827.07	159.5
825.105	166.5
823.139	155
821.172	156.5
819.206	157
817.238	151.5
815.27	153
813.301	159
811.333	150
809.363	157.5
807.394	161
805.424	155
803.453	154
801.482	159
799.509	149.5
797.538	144
795.565	160
793.592	157
791.618	147
789.643	151.5
787.669	140
785.693	157
783.718	150.5
781.742	143
779.765	139.5
777.788	147
775.811	143.5
773.832	149
771.853	148.5
769.875	143.5
767.895	145
765.915	136.5
763.934	149
761.953	153
759.972	138
757.99	139
756.007	137.5
754.024	147.5
752.041	139
750.056	146.5
748.072	144
746.087	157
744.102	143.5
742.116	146
740.13	150
738.143	141.5
736.155	147.5
734.167	137.5
732.179	143.5
730.19	138
728.2	141
726.21	140
724.22	143.5
722.229	146
720.237	134.5
718.246	143
716.253	141
714.26	145.5
712.267	149.5
710.273	149.5
708.279	150.5
706.284	145.5
704.289	153
702.293	140
700.296	135
698.3	145.5
696.303	147
694.305	154.5
692.307	148
690.307	154
688.308	152
686.309	150.5
684.308	155.5
682.308	152.5
680.306	165
678.304	162
676.302	160.5
674.3	162
672.296	162
670.293	170
668.289	160.5
666.284	163
664.278	167.5
662.273	174.5
660.266	167
658.26	158
656.252	158
654.244	170.5
652.237	160
650.227	174.5
648.218	163
646.209	158
644.198	170.5
642.188	165
640.177	181
638.165	171
636.153	169.5
634.14	179.5
632.128	179
630.113	179.5
628.099	169
626.085	182.5
624.07	179
622.054	182.5
620.038	176.5
618.021	178.5
616.004	174.5
613.986	168
611.968	167.5
609.949	169.5
607.93	172.5
605.911	164.5
603.891	157.5
601.87	162
599.848	166.5
597.827	166.5
595.805	164.5
593.782	158
591.759	150.5
589.735	170.5
587.711	159
585.687	162.5
583.661	170.5
581.636	168.5
579.609	171
577.583	162.5
575.555	170
573.527	159.5
571.5	169
569.471	172
567.441	179.5
565.412	187
563.382	180
561.351	182.5
559.32	192
557.289	186
555.257	190.5
553.223	208
551.19	213.5
549.157	217.5
547.122	236.5
545.088	233
543.053	258.5
541.017	275
538.981	316.5
536.943	356
534.907	432
532.869	578.5
530.831	818.5
528.792	1235.5
526.752	1933
524.713	2964
522.673	3858.5
520.632	3942.5
518.591	3289.5
516.549	2361
514.507	1554.5
512.464	1016
510.42	672.5
508.377	475.5
506.332	380
504.288	314
502.242	290.5
500.196	271
498.15	250.5
496.104	246
494.056	232.5
492.008	234
489.96	213
487.911	218
485.862	211.5
483.812	208
481.761	205
479.71	207.5
477.659	200.5
475.607	186.5
473.555	205.5
471.502	199
469.448	185
467.395	193.5
465.34	187
463.285	201.5
461.23	184.5
459.174	193.5
457.118	184
455.061	191
453.003	192.5
450.945	203
448.887	206
446.828	203
444.768	194
442.708	208.5
440.647	199.5
438.587	214
436.525	218.5
434.463	203
432.4	215.5
430.337	214
428.274	204.5
426.21	220
424.145	211.5
422.079	209.5
420.014	210
417.948	217.5
415.882	210.5
413.814	232
411.746	212
409.679	212.5
407.609	208.5
405.54	225
403.47	222
401.401	205.5
399.329	219
397.258	214.5
395.187	215.5
393.114	216
391.041	222
388.968	214
386.895	227.5
384.82	219
382.745	230
380.67	218
378.594	234
376.517	226
374.44	226.5
372.363	211
370.286	232.5
368.207	223.5
366.128	230
364.049	233
361.969	239
359.888	222
357.807	240.5
355.725	234.5
353.643	225
351.561	248
349.477	238.5
347.394	244.5
345.31	254.5
343.226	253
341.141	255.5
339.055	264
336.968	253
334.882	254
332.795	257.5
330.707	264.5
328.618	267.5
326.53	276.5
324.44	288.5
322.351	287
320.26	290
318.17	307.5
316.078	314
313.987	335.5
311.895	357
309.802	360.5
307.708	373
305.614	391.5
303.52	382.5
301.425	388
299.329	385
297.233	360
295.137	345.5
293.039	332
290.942	309
288.844	294.5
286.745	293.5
284.647	294.5
282.546	287
280.446	288
278.346	269.5
276.245	269.5
274.143	298.5
272.041	288
269.939	285.5
267.835	267.5
265.731	274.5
263.627	277
261.522	260
259.417	280
257.311	265
255.204	278.5
253.098	281.5
250.99	286.5
248.882	268
246.774	280.5
244.664	282
242.555	289
240.445	283
238.334	285.5
236.223	295
234.112	292
232	294.5
229.888	284.5
227.775	294
225.661	313
223.546	290
221.431	301
219.316	295.5
217.201	293
215.084	291
212.967	304.5
210.85	299
208.732	311
206.614	302
204.495	302.5
202.375	308.5
200.256	315
198.135	320
196.014	319
193.893	312.5
191.771	319
189.648	316
187.525	338
185.401	350.5
183.277	347
181.152	346.5
179.027	347.5
176.901	361.5
174.775	362
172.648	369
170.521	366
168.393	381.5
166.265	371.5
164.136	381
162.007	396.5
159.876	409
157.746	420.5
155.615	425.5
153.483	431
151.351	457.5
149.219	474
147.086	453.5
144.952	496
142.818	492
140.684	502
138.548	516
136.413	534
134.276	530.5
132.139	560
130.002	579
127.864	587.5
125.725	607.5
123.587	594
121.447	640.5
119.307	644.5
117.166	666.5
115.026	659.5
112.885	693.5
110.743	705
108.6	699
106.456	741.5
104.313	725
102.169	741
100.023	725.5
97.8789	717
95.7328	678.5
93.5869	621
91.4392	550.5
89.2919	494
87.1447	423
84.9959	355
