3528.51	396.5
3527.23	393.5
3525.95	425
3524.67	438
3523.39	439
3522.1	437.5
3520.82	440
3519.54	442.5
3518.26	445.5
3516.97	444
3515.69	447.5
3514.4	448.5
3513.12	440
3511.84	441
3510.55	449.5
3509.26	455.5
3507.98	454
3506.69	471
3505.41	465
3504.12	468.5
3502.83	480
3501.54	479.5
3500.26	482.5
3498.97	484
3497.68	510
3496.39	498
3495.1	516
3493.81	513
3492.52	506
3491.23	529
3489.94	536.5
3488.65	543
3487.36	557
3486.07	556
3484.78	576
3483.49	579
3482.19	576
3480.9	580.5
3479.61	586
3478.31	613.5
3477.02	615
3475.73	606.5
3474.43	619
3473.14	638.5
3471.84	630.5
3470.54	641.5
3469.25	651.5
3467.95	655.5
3466.66	637.5
3465.36	644
3464.06	666.5
3462.76	678.5
3461.46	672.5
3460.17	669
3458.87	676
3457.57	670.5
3456.27	686.5
3454.97	677
3453.67	717.5
3452.37	704
3451.07	710
3449.77	709
3448.47	740.5
3447.16	738
3445.86	755.5
3444.56	744
3443.26	768.5
3441.95	789
3440.65	804.5
3439.35	808
3438.04	801.5
3436.74	832
3435.43	845
3434.13	855
3432.82	883.5
3431.52	889.5
3430.21	913.5
3428.9	922
3427.6	929
3426.29	966
3424.98	962.5
3423.67	969.5
3422.36	1003.5
3421.06	990.5
3419.75	1011
3418.44	1048.5
3417.13	1038.5
3415.82	1056.5
3414.51	1058
3413.2	1075.5
3411.88	1111.5
3410.57	1096
3409.26	1112
3407.95	1110.5
3406.64	1116
3405.32	1120.5
3404.01	1145
3402.7	1140.5
3401.38	1174.5
3400.07	1138.5
3398.75	1167
3397.44	1182
3396.12	1181
3394.81	1216
3393.49	1210
3392.18	1216.5
3390.86	1245.5
3389.54	1249
3388.23	1262
3386.91	1268
3385.59	1278.5
3384.27	1304
3382.95	1294
3381.63	1332.5
3380.31	1322.5
3378.99	1367.5
3377.67	1355
3376.35	1371.5
3375.03	1391
3373.71	1389.5
3372.39	1397
3371.07	1404.5
3369.75	1420.5
3368.42	1431
3367.1	1424
3365.78	1438.5
3364.45	1456.5
3363.13	1469
3361.81	1472
3360.48	1497
3359.16	1510
3357.83	1500
3356.51	1519.5
3355.18	1505
3353.85	1546.5
3352.53	1537.5
3351.2	1561
3349.87	1553.5
3348.54	1558
3347.22	1599
3345.89	1600.5
3344.56	1575
3343.23	1579.5
3341.9	1587.5
3340.57	1606.5
3339.24	1607
3337.91	1603
3336.58	1620.5
3335.25	1598
3333.92	1652.5
3332.58	1644.5
3331.25	1644.5
3329.92	1653
3328.59	1661
3327.25	1678.5
3325.92	1685
3324.58	1705
3323.25	1703.5
3321.92	1668
3320.58	1710.5
3319.25	1715
3317.91	1699.5
3316.57	1700
3315.24	1727
3313.9	1744.5
3312.56	1765
3311.23	1770.5
3309.89	1754
3308.55	1756.5
3307.21	1793
3305.87	1787
3304.53	1775.5
3303.19	1814
3301.85	1819
3300.51	1800.5
3299.17	1815.5
3297.83	1821.5
3296.49	1810.5
3295.15	1849.5
3293.81	1893
3292.46	1833.5
3291.12	1864.5
3289.78	1871.5
3288.43	1876
3287.09	1892
3285.75	1924
3284.4	1877
3283.06	1901
3281.71	1907.5
3280.37	1911
3279.02	1931.5
3277.67	1929.5
3276.33	1941.5
3274.98	1959.5
3273.63	1964.5
3272.28	1988
3270.94	2015.5
3269.59	2016.5
3268.24	2040
3266.89	2031.5
3265.54	2081.5
3264.19	2092
3262.84	2116
3261.49	2161
3260.14	2190.5
3258.79	2192.5
3257.44	2252
3256.08	2283.5
3254.73	2316.5
3253.38	2379
3252.03	2442
3250.67	2480
3249.32	2544
3247.96	2583.5
3246.61	2647.5
3245.26	2713
3243.9	2824
3242.54	2894.5
3241.19	2922
3239.83	3027.5
3238.48	3078
3237.12	3175.5
3235.76	3248
3234.41	3330.5
3233.05	3412.5
3231.69	3450.5
3230.33	3542.5
3228.97	3652.5
3227.61	3710.5
3226.25	3741.5
3224.89	3874
3223.53	3931.5
3222.17	4025.5
3220.81	4044
3219.45	4100.5
3218.09	4121.5
3216.72	4225.5
3215.36	4235.5
3214	4255
3212.63	4310.5
3211.27	4311.5
3209.91	4406.5
3208.54	4402.5
3207.18	4422
3205.81	4457
3204.45	4474
3203.08	4506
3201.71	4530.5
3200.35	4591
3198.98	4601
3197.61	4643.5
3196.25	4628.5
3194.88	4657.5
3193.51	4692
3192.14	4713.5
3190.77	4701.5
3189.4	4738
3188.03	4740.5
3186.66	4787
3185.29	4857.5
3183.92	4850
3182.55	4881.5
3181.18	4878
3179.81	4916
3178.44	4929
3177.06	4949
3175.69	5023.5
3174.32	5081.5
3172.94	5092
3171.57	5105
3170.2	5225
3168.82	5197.5
3167.45	5245
3166.07	5270.5
3164.69	5331.5
3163.32	5328.5
3161.94	5357
3160.56	5393
3159.19	5463.5
3157.81	5528.5
3156.43	5539
3155.05	5632.5
3153.67	5656
3152.3	5667.5
3150.92	5717.5
3149.54	5747.5
3148.16	5772
3146.78	5831
3145.4	5826
3144.01	5803.5
3142.63	5923
3141.25	5908.5
3139.87	6008
3138.49	5985
3137.1	6066.5
3135.72	6050
3134.34	6122
3132.95	6197
3131.57	6194
3130.18	6277
3128.8	6316
3127.41	6290.5
3126.03	6428.5
3124.64	6447.5
3123.25	6487
3121.87	6471
3120.48	6523.5
3119.09	6566
3117.7	6620
3116.32	6651.5
3114.93	6599
3113.54	6717.5
3112.15	6739
3110.76	6759.5
3109.37	6836.5
3107.98	6864.5
3106.59	6853.5
3105.2	6962.5
3103.8	6894
3102.41	7047.5
3101.02	6960
3099.63	7072.5
3098.23	7110
3096.84	7144
3095.45	7089.5
3094.05	7147.5
3092.66	7168
3091.26	7247
3089.87	7246
3088.47	7266
3087.08	7257
3085.68	7273.5
3084.28	7332.5
3082.89	7344.5
3081.49	7383
3080.09	7392
3078.69	7376.5
3077.3	7395
3075.9	7467.5
3074.5	7448
3073.1	7431.5
3071.7	7524
3070.3	7437.5
3068.9	7502
3067.5	7462
3066.09	7540.5
3064.69	7552
3063.29	7604.5
3061.89	7630
3060.48	7669.5
3059.08	7622.5
3057.68	7645
3056.27	7637
3054.87	7679.5
3053.46	7714.5
3052.06	7720
3050.65	7789
3049.25	7855.5
3047.84	7790
3046.44	7884.5
3045.03	7939.5
3043.62	7953
3042.21	7946.5
3040.81	7974.5
3039.4	7968
3037.99	8051
3036.58	8068
3035.17	8048.5
3033.76	8048
3032.35	8104
3030.94	8062.5
3029.53	8074
3028.12	8109
3026.71	8171.5
3025.29	8112
3023.88	8121
3022.47	8171
3021.06	8131.5
3019.64	8185.5
3018.23	8123.5
3016.82	8158.5
3015.4	8164.5
3013.99	8169
3012.57	8168
3011.15	8131
3009.74	8220.5
3008.32	8248
3006.91	8230
3005.49	8263.5
3004.07	8288
3002.65	8285.5
3001.24	8365.5
2999.82	8377.5
2998.4	8418
2996.98	8420.5
2995.56	8475
2994.14	8509
2992.72	8559
2991.3	8586
2989.88	8597.5
2988.46	8664
2987.03	8680.5
2985.61	8663.5
2984.19	8758.5
2982.77	8799.5
2981.34	8893
2979.92	8857
2978.49	8984.5
2977.07	8992.5
2975.65	9017.5
2974.22	9096
2972.79	9114
2971.37	9135.5
2969.94	9165
2968.52	9128.5
2967.09	9254
2965.66	9224.5
2964.23	9209
2962.81	9284
2961.38	9279.5
2959.95	9289.5
2958.52	9294
2957.09	9349.5
2955.66	9426.5
2954.23	9352.5
2952.8	9342
2951.37	9442
2949.94	9434.5
2948.5	9434.5
2947.07	9423.5
2945.64	9363
2944.21	9433.5
2942.77	9491.5
2941.34	9546.5
2939.91	9515.5
2938.47	9515
2937.04	9586
2935.6	9543
2934.17	9608
2932.73	9681
2931.29	9684.5
2929.86	9675.5
2928.42	9675
2926.98	9771.5
2925.55	9752
2924.11	9803
2922.67	9754
2921.23	9820
2919.79	9780
2918.35	9830.5
2916.91	9796
2915.47	9893
2914.03	9831
2912.59	9874.5
2911.15	9890.5
2909.71	9868
2908.26	9913
2906.82	9917
2905.38	9913.5
2903.94	9990.5
2902.49	9992.5
2901.05	9962.5
2899.6	9965
2898.16	10031.5
2896.71	10061
2895.27	10010
2893.82	10024.5
2892.38	10071
2890.93	10159.5
2889.48	10128.5
2888.03	10143
2886.59	10130.5
2885.14	10153.5
2883.69	10167.5
2882.24	10205.5
2880.79	10155
2879.34	10183
2877.89	10256
2876.44	10231.5
2874.99	10313.5
2873.54	10230
2872.09	10262
2870.64	10246.5
2869.18	10269
2867.73	10325.5
2866.28	10310
2864.83	10313
2863.37	10298.5
2861.92	10330.5
2860.46	10368.5
2859.01	10347
2857.55	10381
2856.1	10319
2854.64	10343.5
2853.19	10349
2851.73	10327.5
2850.27	10345.5
2848.81	10340
2847.36	10249
2845.9	10355.5
2844.44	10372
2842.98	10398.5
2841.52	10371.5
2840.06	10384
2838.6	10364.5
2837.14	10406.5
2835.68	10415
2834.22	10390
2832.76	10350.5
2831.3	10368
2829.83	10388
2828.37	10327
2826.91	10307.5
2825.44	10358
2823.98	10392.5
2822.52	10304
2821.05	10281
2819.59	10252.5
2818.12	10271
2816.66	10282
2815.19	10256
2813.72	10261
2812.26	10196.5
2810.79	10211
2809.32	10139
2807.85	10209.5
2806.38	10175.5
2804.92	10200.5
2803.45	10153.5
2801.98	10183.5
2800.51	10135
2799.04	10192.5
2797.57	10155
2796.1	10170
2794.62	10087.5
2793.15	10109
2791.68	10121
2790.21	10096
2788.73	10135
2787.26	10133.5
2785.79	10143
2784.31	10105
2782.84	10092
2781.36	10130
2779.89	10140.5
2778.41	10148
2776.94	10168.5
2775.46	10167.5
2773.99	10185
2772.51	10239.5
2771.03	10310.5
2769.55	10270
2768.07	10289.5
2766.6	10279.5
2765.12	10330.5
2763.64	10279
2762.16	10325.5
2760.68	10353
2759.2	10322.5
2757.72	10326.5
2756.24	10298.5
2754.75	10290
2753.27	10344
2751.79	10247
2750.31	10335
2748.82	10302.5
2747.34	10284.5
2745.86	10255
2744.37	10352
2742.89	10294
2741.4	10320
2739.92	10206
2738.43	10248
2736.94	10254
2735.46	10190.5
2733.97	10192.5
2732.48	10277.5
2731	10283.5
2729.51	10198.5
2728.02	10186
2726.53	10218.5
2725.04	10215
2723.55	10247.5
2722.06	10201
2720.57	10222
2719.08	10212
2717.59	10209
2716.1	10124
2714.61	10156
2713.11	10161
2711.62	10189.5
2710.13	10202
2708.64	10156
2707.14	10218.5
2705.65	10199
2704.15	10256.5
2702.66	10202.5
2701.16	10198
2699.67	10209.5
2698.17	10185
2696.67	10191
2695.18	10068.5
2693.68	10116.5
2692.18	10141
2690.69	10061
2689.19	10127.5
2687.69	10041
2686.19	10014
2684.69	9916
2683.19	9987.5
2681.69	9891.5
2680.19	9924.5
2678.69	9901.5
2677.19	9846.5
2675.68	9888.5
2674.18	9904.5
2672.68	9895.5
2671.18	9926
2669.67	9867.5
2668.17	9763
2666.66	9786
2665.16	9757.5
2663.66	9806
2662.15	9769.5
2660.64	9740.5
2659.14	9739
2657.63	9723
2656.13	9734
2654.62	9807.5
2653.11	9658.5
2651.6	9673
2650.09	9629
2648.58	9636.5
2647.08	9618
2645.57	9604
2644.06	9643
2642.55	9607.5
2641.04	9575
2639.52	9508
2638.01	9525.5
2636.5	9473
2634.99	9466
2633.48	9452.5
2631.96	9499.5
2630.45	9418
2628.94	9359.5
2627.42	9271
2625.91	9323.5
2624.39	9336
2622.88	9316.5
2621.36	9308
2619.85	9242
2618.33	9248.5
2616.81	9305.5
2615.3	9211
2613.78	9300.5
2612.26	9282.5
2610.74	9251.5
2609.22	9217.5
2607.7	9224
2606.18	9165
2604.66	9180.5
2603.14	9090.5
2601.62	9101
2600.1	9026.5
2598.58	9009
2597.06	8915.5
2595.54	8939.5
2594.01	8905.5
2592.49	8896.5
2590.97	8923
2589.44	8953.5
2587.92	8867.5
2586.39	8895.5
2584.87	8907.5
2583.34	8851
2581.82	8906
2580.29	8819.5
2578.76	8813
2577.24	8785.5
2575.71	8765.5
2574.18	8797.5
2572.65	8776.5
2571.13	8732
2569.6	8687
2568.07	8768.5
2566.54	8747.5
2565.01	8680.5
2563.48	8731
2561.95	8663.5
2560.42	8690.5
2558.88	8667
2557.35	8687.5
2555.82	8644.5
2554.29	8628
2552.75	8609
2551.22	8586
2549.69	8547.5
2548.15	8521
2546.62	8591
2545.08	8442.5
2543.55	8514
2542.01	8463.5
2540.47	8454.5
2538.94	8389
2537.4	8356
2535.86	8373.5
2534.33	8318.5
2532.79	8339
2531.25	8341
2529.71	8220
2528.17	8211.5
2526.63	8226
2525.09	8179.5
2523.55	8185.5
2522.01	8097
2520.47	8134
2518.92	8090
2517.38	8097
2515.84	8117
2514.3	8050
2512.75	8034
2511.21	8007.5
2509.67	8025.5
2508.12	7994
2506.58	8000
2505.03	7951
2503.49	7901.5
2501.94	7871.5
2500.39	7937
2498.85	7847.5
2497.3	7837
2495.75	7740
2494.2	7781
2492.65	7770
2491.11	7723.5
2489.56	7754.5
2488.01	7714.5
2486.46	7690.5
2484.91	7603
2483.36	7678
2481.8	7603
2480.25	7555
2478.7	7491.5
2477.15	7534.5
2475.6	7542
2474.04	7454.5
2472.49	7462.5
2470.93	7478.5
2469.38	7333
2467.83	7310.5
2466.27	7272.5
2464.71	7281
2463.16	7237.5
2461.6	7228.5
2460.05	7167.5
2458.49	7151.5
2456.93	7164
2455.37	7095.5
2453.81	7069
2452.26	7072
2450.7	7031
2449.14	7008.5
2447.58	6971
2446.02	6958
2444.46	6913.5
2442.9	6870
2441.33	6887.5
2439.77	6869
2438.21	6827
2436.65	6816.5
2435.08	6800
2433.52	6764
2431.96	6843
2430.39	6776.5
2428.83	6789.5
2427.26	6719
2425.7	6753.5
2424.13	6748
2422.56	6707.5
2421	6714
2419.43	6663.5
2417.86	6618
2416.3	6600.5
2414.73	6587
2413.16	6559.5
2411.59	6606.5
2410.02	6523
2408.45	6587.5
2406.88	6530
2405.31	6525
2403.74	6505
2402.17	6545.5
2400.6	6537.5
2399.02	6525.5
2397.45	6491.5
2395.88	6477
2394.3	6334.5
2392.73	6409.5
2391.16	6378
2389.58	6403
2388.01	6355
2386.43	6297
2384.86	6352.5
2383.28	6364.5
2381.7	6356
2380.13	6363.5
2378.55	6351
2376.97	6316.5
2375.39	6284
2373.81	6260
2372.23	6240
2370.65	6260.5
2369.07	6273.5
2367.49	6201.5
2365.91	6216.5
2364.33	6213.5
2362.75	6217.5
2361.17	6180.5
2359.59	6174.5
2358.01	6174
2356.42	6128.5
2354.84	6149
2353.25	6158.5
2351.67	6141
2350.09	6127.5
2348.5	6138
2346.92	6078
2345.33	6100
2343.74	6046
2342.16	6060
2340.57	6111.5
2338.98	6005.5
2337.39	6002
2335.81	5993
2334.22	5980.5
2332.63	5956
2331.04	6038
2329.45	5973
2327.86	5912
2326.27	5935
2324.68	5969
2323.09	5871
2321.49	5879
2319.9	5817
2318.31	5849.5
2316.72	5828
2315.12	5755
2313.53	5741.5
2311.93	5731
2310.34	5722.5
2308.74	5713.5
2307.15	5695
2305.55	5681.5
2303.96	5670
2302.36	5567
2300.76	5593.5
2299.17	5516.5
2297.57	5532
2295.97	5549.5
2294.37	5516.5
2292.77	5489.5
2291.17	5458.5
2289.57	5418.5
2287.97	5406.5
2286.37	5396
2284.77	5355.5
2283.17	5376
2281.57	5384
2279.96	5421
2278.36	5293.5
2276.76	5348
2275.15	5323
2273.55	5312.5
2271.95	5271
2270.34	5233
2268.74	5257
2267.13	5234.5
2265.52	5226.5
2263.92	5147.5
2262.31	5124.5
2260.7	5153
2259.1	5099.5
2257.49	5098
2255.88	5078
2254.27	5057.5
2252.66	5015
2251.05	5097
2249.44	5063.5
2247.83	5079.5
2246.22	5037.5
2244.61	5047.5
2243	5040.5
2241.39	4980.5
2239.77	5005.5
2238.16	5018.5
2236.55	5005
2234.93	4979
2233.32	4897.5
2231.7	4899.5
2230.09	4861.5
2228.47	4867
2226.86	4815.5
2225.24	4799.5
2223.63	4844
2222.01	4805.5
2220.39	4775
2218.77	4739
2217.16	4705.5
2215.54	4701.5
2213.92	4721
2212.3	4710.5
2210.68	4674
2209.06	4659.5
2207.44	4639
2205.82	4598
2204.19	4622.5
2202.57	4602
2200.95	4588.5
2199.33	4605.5
2197.7	4521.5
2196.08	4537.5
2194.46	4544.5
2192.83	4519
2191.21	4497.5
2189.58	4465.5
2187.96	4441
2186.33	4479
2184.7	4465
2183.08	4450.5
2181.45	4449
2179.82	4425
2178.19	4420.5
2176.57	4384
2174.94	4322.5
2173.31	4318
2171.68	4307
2170.05	4301.5
2168.42	4263
2166.79	4265.5
2165.16	4244
2163.52	4242.5
2161.89	4259.5
2160.26	4217
2158.63	4200.5
2156.99	4200.5
2155.36	4145.5
2153.73	4161.5
2152.09	4157
2150.46	4144.5
2148.82	4123
2147.18	4121
2145.55	4075
2143.91	4103
2142.27	4055.5
2140.64	4018
2139	4021.5
2137.36	4017
2135.72	4056
2134.08	3934.5
2132.44	3946
2130.8	3928
2129.16	3894.5
2127.52	3898
2125.88	3875
2124.24	3828
2122.6	3794
2120.95	3798
2119.31	3778.5
2117.67	3749
2116.02	3759.5
2114.38	3742
2112.74	3726.5
2111.09	3737
2109.45	3731
2107.8	3700
2106.15	3710
2104.51	3685
2102.86	3635
2101.21	3634
2099.56	3619.5
2097.92	3603.5
2096.27	3608
2094.62	3593.5
2092.97	3625
2091.32	3557.5
2089.67	3602
2088.02	3534.5
2086.37	3561
2084.72	3533.5
2083.06	3552
2081.41	3539.5
2079.76	3541
2078.1	3498.5
2076.45	3548
2074.8	3531.5
2073.14	3519
2071.49	3502
2069.83	3575.5
2068.18	3516
2066.52	3455
2064.86	3432
2063.21	3471.5
2061.55	3459
2059.89	3405.5
2058.23	3449.5
2056.57	3448.5
2054.92	3428
2053.26	3402.5
2051.6	3421.5
2049.94	3400
2048.27	3368.5
2046.61	3344
2044.95	3403
2043.29	3365.5
2041.63	3316
2039.97	3322
2038.3	3277.5
2036.64	3223.5
2034.97	3251.5
2033.31	3231
2031.64	3243
2029.98	3195.5
2028.31	3182.5
2026.65	3165
2024.98	3131.5
2023.31	3112.5
2021.65	3086.5
2019.98	3095
2018.31	3068.5
2016.64	3074.5
2014.97	3008.5
2013.3	3029
2011.63	3027
2009.96	3050.5
2008.29	3018.5
2006.62	3013
2004.95	2988
2003.28	2990
2001.6	2966.5
1999.93	2986
1998.26	2933.5
1996.58	2949.5
1994.91	2943.5
1993.24	2912
1991.56	2912.5
1989.89	2878
1988.21	2880
1986.53	2867
1984.86	2838.5
1983.18	2852
1981.5	2854
1979.82	2814
1978.15	2831
1976.47	2790
1974.79	2807
1973.11	2804
1971.43	2787
1969.75	2807.5
1968.07	2789.5
1966.38	2754
1964.7	2699
1963.02	2707.5
1961.34	2700.5
1959.66	2705.5
1957.97	2690.5
1956.29	2658
1954.6	2668
1952.92	2620
1951.23	2654.5
1949.55	2611
1947.86	2645.5
1946.18	2597
1944.49	2577.5
1942.8	2550.5
1941.11	2591
1939.43	2561.5
1937.74	2554
1936.05	2559.5
1934.36	2554.5
1932.67	2547
1930.98	2512
1929.29	2517.5
1927.6	2490
1925.91	2436
1924.21	2468.5
1922.52	2455
1920.83	2452
1919.14	2420.5
1917.44	2427.5
1915.75	2392.5
1914.05	2421.5
1912.36	2397
1910.66	2418
1908.97	2366
1907.27	2367.5
1905.58	2357
1903.88	2350.5
1902.18	2338.5
1900.48	2307.5
1898.79	2310
1897.09	2310
1895.39	2288
1893.69	2280.5
1891.99	2253.5
1890.29	2257
1888.59	2243.5
1886.89	2230.5
1885.18	2228
1883.48	2177.5
1881.78	2180
1880.08	2206
1878.37	2166
1876.67	2156.5
1874.96	2145.5
1873.26	2079.5
1871.55	2113
1869.85	2091.5
1868.14	2072.5
1866.44	2089
1864.73	2077.5
1863.02	2040
1861.32	2066.5
1859.61	2025
1857.9	2041
1856.19	2023.5
1854.48	2024
1852.77	1992
1851.06	2013
1849.35	2013.5
1847.64	1998
1845.93	2038
1844.21	1994
1842.5	1988
1840.79	2005.5
1839.08	1984.5
1837.36	1964
1835.65	1954
1833.93	1911.5
1832.22	1937
1830.5	1926
1828.79	1923
1827.07	1905
1825.36	1899
1823.64	1892
1821.92	1852
1820.2	1877.5
1818.48	1857.5
1816.77	1847
1815.05	1827
1813.33	1851.5
1811.61	1833.5
1809.89	1797.5
1808.16	1818
1806.44	1795.5
1804.72	1800
1803	1758
1801.28	1756
1799.55	1781.5
1797.83	1767.5
1796.11	1728
1794.38	1756
1792.66	1755.5
1790.93	1731.5
1789.21	1734
1787.48	1707.5
1785.75	1699
1784.03	1666.5
1782.3	1681.5
1780.57	1669
1778.84	1668.5
1777.11	1640
1775.38	1660.5
1773.66	1635.5
1771.93	1661
1770.19	1638
1768.46	1658
1766.73	1639.5
1765	1628
1763.27	1627
1761.54	1634
1759.8	1617.5
1758.07	1606.5
1756.34	1627.5
1754.6	1592
1752.87	1604.5
1751.13	1599.5
1749.4	1600
1747.66	1588
1745.92	1623
1744.19	1577.5
1742.45	1571
1740.71	1589.5
1738.97	1595
1737.23	1529.5
1735.49	1550
1733.75	1546.5
1732.01	1538.5
1730.27	1536
1728.53	1518.5
1726.79	1540.5
1725.05	1512
1723.31	1508
1721.57	1510.5
1719.82	1489
1718.08	1492.5
1716.34	1455
1714.59	1468
1712.85	1483
1711.1	1448.5
1709.36	1443
1707.61	1450.5
1705.86	1416.5
1704.12	1432.5
1702.37	1424
1700.62	1392
1698.87	1389
1697.12	1385
1695.37	1377.5
1693.62	1384.5
1691.87	1379
1690.12	1352.5
1688.37	1336
1686.62	1360
1684.87	1321
1683.12	1345
1681.36	1331
1679.61	1319.5
1677.86	1320.5
1676.1	1311.5
1674.35	1265.5
1672.59	1315.5
1670.84	1308.5
1669.08	1277
1667.33	1297.5
1665.57	1291
1663.81	1288.5
1662.06	1292
1660.3	1288.5
1658.54	1281
1656.78	1277.5
1655.02	1272.5
1653.26	1265.5
1651.5	1260
1649.74	1254
1647.98	1217
1646.22	1223.5
1644.46	1239.5
1642.7	1251
1640.93	1220.5
1639.17	1199.5
1637.41	1219
1635.64	1235
1633.88	1203
1632.11	1195.5
1630.35	1185
1628.58	1199
1626.81	1168
1625.05	1177.5
1623.28	1178.5
1621.51	1154.5
1619.75	1148
1617.98	1142
1616.21	1155.5
1614.44	1132
1612.67	1128.5
1610.9	1132
1609.13	1123.5
1607.36	1133.5
1605.58	1107.5
1603.81	1104
1602.04	1114.5
1600.27	1112
1598.49	1149
1596.72	1109.5
1594.95	1106.5
1593.17	1096
1591.4	1123
1589.62	1086.5
1587.84	1096
1586.07	1095
1584.29	1075.5
1582.51	1078
1580.74	1063.5
1578.96	1077.5
1577.18	1058
1575.4	1054.5
1573.62	1066
1571.84	1054.5
1570.06	1040
1568.28	1060
1566.5	1028
1564.72	1021
1562.93	1027.5
1561.15	1017
1559.37	1020
1557.58	1022
1555.8	1010
1554.02	1021
1552.23	1003
1550.45	996
1548.66	997
1546.87	973
1545.09	967
1543.3	977.5
1541.51	946
1539.72	950.5
1537.94	942
1536.15	952
1534.36	938
1532.57	943.5
1530.78	921.5
1528.99	923.5
1527.2	905.5
1525.4	906
1523.61	908
1521.82	907
1520.03	894.5
1518.23	897
1516.44	902.5
1514.65	891.5
1512.85	890.5
1511.06	922
1509.26	883.5
1507.46	901.5
1505.67	895.5
1503.87	897
1502.07	878.5
1500.28	887
1498.48	865
1496.68	852.5
1494.88	862.5
1493.08	863.5
1491.28	857.5
1489.48	855
1487.68	853.5
1485.88	850.5
1484.08	872
1482.27	861
1480.47	855
1478.67	867.5
1476.86	848
1475.06	839
1473.25	841
1471.45	841.5
1469.64	826
1467.84	821.5
1466.03	820
1464.23	819.5
1462.42	820.5
1460.61	841
1458.8	814.5
1456.99	793.5
1455.18	817.5
1453.37	800.5
1451.56	822
1449.75	789
1447.94	801.5
1446.13	779.5
1444.32	800.5
1442.51	795.5
1440.7	791.5
1438.88	769.5
1437.07	785
1435.26	778
1433.44	769.5
1431.63	775
1429.81	752.5
1427.99	756
1426.18	779
1424.36	759
1422.54	743
1420.73	746.5
1418.91	751
1417.09	737
1415.27	735
1413.45	743.5
1411.63	746
1409.81	749.5
1407.99	723.5
1406.17	728
1404.35	721.5
1402.53	721.5
1400.7	722
1398.88	697
1397.06	713
1395.23	691
1393.41	701.5
1391.58	703
1389.76	695
1387.93	714.5
1386.11	702
1384.28	689.5
1382.45	692
1380.62	699.5
1378.8	693
1376.97	677.5
1375.14	690
1373.31	680.5
1371.48	653.5
1369.65	660.5
1367.82	685.5
1365.99	665.5
1364.16	670
1362.32	661.5
1360.49	657.5
1358.66	650.5
1356.82	663
1354.99	667
1353.16	621
1351.32	653.5
1349.48	642
1347.65	626.5
1345.81	639
1343.98	619
1342.14	637.5
1340.3	605.5
1338.46	628
1336.62	608.5
1334.79	610.5
1332.95	611.5
1331.11	625
1329.27	595.5
1327.42	616.5
1325.58	590
1323.74	613.5
1321.9	586.5
1320.06	607
1318.21	598.5
1316.37	592
1314.53	591
1312.68	583.5
1310.84	577.5
1308.99	587
1307.15	573.5
1305.3	559
1303.45	557.5
1301.61	561.5
1299.76	578
1297.91	543.5
1296.06	574
1294.21	552.5
1292.36	563
1290.51	552
1288.66	555.5
1286.81	544
1284.96	554.5
1283.11	559.5
1281.26	524
1279.4	535
1277.55	532.5
1275.7	524
1273.84	534.5
1271.99	516.5
1270.13	523
1268.28	522.5
1266.42	524.5
1264.56	520.5
1262.71	511.5
1260.85	520
1258.99	520.5
1257.13	511
1255.27	513.5
1253.41	504.5
1251.56	513.5
1249.7	494.5
1247.83	497.5
1245.97	499
1244.11	493
1242.25	500
1240.39	493
1238.52	480
1236.66	481
1234.8	490
1232.93	488.5
1231.07	491
1229.2	475.5
1227.34	489.5
1225.47	483
1223.6	470
1221.74	474.5
1219.87	482
1218	466
1216.13	474.5
1214.26	474
1212.39	464
1210.53	474.5
1208.65	476.5
1206.78	462
1204.91	444.5
1203.04	468
1201.17	475.5
1199.3	443.5
1197.42	444.5
1195.55	451
1193.68	434
1191.8	455
1189.93	434
1188.05	441.5
1186.17	449
1184.3	442
1182.42	451
1180.54	437.5
1178.67	438
1176.79	423.5
1174.91	433
1173.03	419.5
1171.15	436
1169.27	423
1167.39	414
1165.51	437.5
1163.63	422.5
1161.75	418
1159.86	432.5
1157.98	432.5
1156.1	421.5
1154.21	424.5
1152.33	420
1150.44	421.5
1148.56	416.5
1146.67	400.5
1144.79	407.5
1142.9	405
1141.01	420
1139.12	405
1137.24	410.5
1135.35	413
1133.46	412
1131.57	415.5
1129.68	392.5
1127.79	400
1125.9	404.5
1124.01	393
1122.12	400.5
1120.22	398
1118.33	389.5
1116.44	406
1114.54	388
1112.65	390
1110.75	390
1108.86	386.5
1106.96	382
1105.07	378
1103.17	384.5
1101.27	386.5
1099.38	379
1097.48	370.5
1095.58	373
1093.68	379.5
1091.78	369.5
1089.88	369.5
1087.98	372
1086.08	349
1084.18	379
1082.28	356.5
1080.38	371
1078.47	360.5
1076.57	360.5
1074.67	366
1072.76	361
1070.86	359
1068.95	352.5
1067.05	358.5
1065.14	355.5
1063.24	361.5
1061.33	339.5
1059.42	352.5
1057.51	335.5
1055.6	355.5
1053.7	361.5
1051.79	351.5
1049.88	364
1047.97	347.5
1046.06	352.5
1044.14	336
1042.23	341
1040.32	349
1038.41	339.5
1036.5	355
1034.58	342.5
1032.67	346
1030.75	342.5
1028.84	345
1026.92	343
1025.01	352
1023.09	336.5
1021.17	345.5
1019.26	347.5
1017.34	343.5
1015.42	356.5
1013.5	356.5
1011.58	366
1009.66	358
1007.74	352.5
1005.82	359.5
1003.9	357
1001.98	362.5
1000.06	358
998.134	377
996.212	394
994.288	383.5
992.364	400
990.44	401.5
988.515	420.5
986.589	436
984.663	445.5
982.737	431.5
980.81	451
978.883	463.5
976.955	447.5
975.027	452
973.098	473
971.169	457
969.239	454.5
967.308	451
965.378	460
963.447	466
961.516	473
959.583	472
957.65	463.5
955.718	475.5
953.784	483
951.85	493
949.916	503
947.981	512
946.045	514
944.109	510
942.173	502.5
940.236	505
938.298	501.5
936.36	490
934.422	482.5
932.484	435
930.544	406
928.604	373.5
926.664	356
924.724	338.5
922.782	333.5
920.84	342
918.898	315.5
916.955	303.5
915.012	316
913.068	317
911.124	313
909.18	312
907.235	311
905.289	317.5
903.343	309.5
901.397	315
899.45	299
897.502	319.5
895.554	300.5
893.605	308.5
891.657	293.5
889.707	303.5
887.758	299.5
885.807	292.5
883.856	309
881.905	296.5
879.953	304
878.001	303
876.048	303.5
874.094	311
872.14	290
870.186	317.5
868.232	296.5
866.276	300
864.321	305
862.365	321
860.408	308
858.451	281
856.493	296
854.535	296
852.576	287
850.617	278
848.658	286
846.698	286.5
844.737	281
842.776	283
840.814	285
838.852	283.5
836.89	287
834.927	285.5
832.963	291.5
830.999	286.5
829.035	291.5
827.07	281.5
825.105	285
823.139	291.5
821.172	289.5
819.206	291
817.238	290
815.27	297
813.301	274.5
811.333	285
809.363	299.5
807.394	288
805.424	280
803.453	273
801.482	292
799.509	277
797.538	273.5
795.565	266.5
793.592	269.5
791.618	271
789.643	260
787.669	275
785.693	262
783.718	253.5
781.742	271.5
779.765	280
777.788	278.5
775.811	260
773.832	272
771.853	268
769.875	263.5
767.895	272.5
765.915	267
763.934	260
761.953	256
759.972	254
757.99	274
756.007	256.5
754.024	263
752.041	258
750.056	262.5
748.072	251.5
746.087	275
744.102	268.5
742.116	256.5
740.13	263.5
738.143	248.5
736.155	268.5
734.167	259.5
732.179	249
730.19	235.5
728.2	257
726.21	268
724.22	248
722.229	260.5
720.237	257
718.246	258
716.253	251
714.26	264
712.267	262.5
710.273	275.5
708.279	251
706.284	257.5
704.289	271.5
702.293	264
700.296	265.5
698.3	266.5
696.303	269.5
694.305	266.5
692.307	267
690.307	268
688.308	272.5
686.309	277.5
684.308	280
682.308	289.5
680.306	293
678.304	278.5
676.302	289.5
674.3	292.5
672.296	279.5
670.293	303.5
668.289	289
666.284	290.5
664.278	291
662.273	301
660.266	297.5
658.26	300
656.252	284
654.244	305.5
652.237	290
650.227	304.5
648.218	305.5
646.209	292.5
644.198	317.5
642.188	300
640.177	318.5
638.165	312
636.153	312
634.14	313
632.128	312
630.113	317
628.099	314
626.085	317
624.07	314
622.054	308.5
620.038	310
618.021	305.5
616.004	307.5
613.986	309
611.968	305
609.949	308.5
607.93	311
605.911	307
603.891	308
601.87	289
599.848	296.5
597.827	296.5
595.805	297
593.782	294.5
591.759	295.5
589.735	307
587.711	295
585.687	317
583.661	308
581.636	292
579.609	316
577.583	318.5
575.555	310
573.527	309.5
571.5	312.5
569.471	315.5
567.441	340.5
565.412	320
563.382	325
561.351	340
559.32	340
557.289	348.5
555.257	356
553.223	361
551.19	380
549.157	400.5
547.122	402
545.088	425.5
543.053	455
541.017	483.5
538.981	515.5
536.943	603
534.907	733
532.869	924.5
530.831	1279
528.792	1909.5
526.752	2934
524.713	4351.5
522.673	5479.5
520.632	5582.5
518.591	4510.5
516.549	3258.5
514.507	2178
512.464	1441
510.42	1001.5
508.377	749
506.332	623
504.288	544.5
502.242	499.5
500.196	468
498.15	449.5
496.104	430.5
494.056	440
492.008	414.5
489.96	407.5
487.911	385
485.862	410.5
483.812	385.5
481.761	386.5
479.71	388
477.659	377
475.607	374.5
473.555	375.5
471.502	363
469.448	382.5
467.395	375
465.34	372
463.285	364
461.23	374.5
459.174	362
457.118	361
455.061	391.5
453.003	379.5
450.945	371
448.887	383.5
446.828	381.5
444.768	394
442.708	394.5
440.647	405.5
438.587	391.5
436.525	397
434.463	411
432.4	415
430.337	403
428.274	406
426.21	388
424.145	414
422.079	410.5
420.014	409.5
417.948	409
415.882	424
413.814	413.5
411.746	431
409.679	415
407.609	428
405.54	414.5
403.47	421.5
401.401	430
399.329	432
397.258	439
395.187	432
393.114	440
391.041	431
388.968	449.5
386.895	450.5
384.82	448.5
382.745	459.5
380.67	445.5
378.594	462
376.517	443
374.44	447
372.363	463.5
370.286	450.5
368.207	453
366.128	489
364.049	459
361.969	457.5
359.888	474
357.807	484.5
355.725	485.5
353.643	498.5
351.561	497
349.477	484
347.394	508
345.31	497.5
343.226	503
341.141	514
339.055	524
336.968	519
334.882	533.5
332.795	536
330.707	546
328.618	563
326.53	575
324.44	578
322.351	590.5
320.26	606
318.17	637
316.078	647
313.987	669.5
311.895	680.5
309.802	704
307.708	748
305.614	764.5
303.52	753
301.425	755.5
299.329	749.5
297.233	733.5
295.137	700.5
293.039	678.5
290.942	674
288.844	677.5
286.745	681.5
284.647	669
282.546	659.5
280.446	675
278.346	682.5
276.245	668.5
274.143	658
272.041	654
269.939	680.5
267.835	680.5
265.731	680.5
263.627	665
261.522	686.5
259.417	684.5
257.311	710
255.204	705.5
253.098	701.5
250.99	710.5
248.882	714
246.774	713
244.664	758.5
242.555	771
240.445	750
238.334	779.5
236.223	763
234.112	799
232	790
229.888	804
227.775	797
225.661	830
223.546	816
221.431	833.5
219.316	831
217.201	839
215.084	854.5
212.967	883
210.85	880
208.732	902.5
206.614	921
204.495	933
202.375	944
200.256	945
198.135	973.5
196.014	979.5
193.893	991
191.771	1025
189.648	1019.5
187.525	1008
185.401	1033.5
183.277	1067
181.152	1061
179.027	1094
176.901	1078.5
174.775	1140.5
172.648	1159.5
170.521	1178
168.393	1189
166.265	1187
164.136	1222
162.007	1251.5
159.876	1254
157.746	1277
155.615	1298.5
153.483	1333
151.351	1348.5
149.219	1394.5
147.086	1393
144.952	1421.5
142.818	1460
140.684	1502
138.548	1501.5
136.413	1558
134.276	1586.5
132.139	1602
130.002	1662.5
127.864	1708.5
125.725	1729
123.587	1807
121.447	1814.5
119.307	1870.5
117.166	1923.5
115.026	1913
112.885	1991
110.743	2007.5
108.6	2042.5
106.456	2038
104.313	2075.5
102.169	2035.5
100.023	1973.5
97.8789	1861.5
95.7328	1763
93.5869	1575
91.4392	1378
89.2919	1185
87.1447	1048.5
84.9959	900.5
