3528.51	259.5
3527.23	281
3525.95	301.5
3524.67	308
3523.39	307.5
3522.1	316.5
3520.82	321.5
3519.54	317
3518.26	327.5
3516.97	322
3515.69	323
3514.4	308.5
3513.12	309
3511.84	315
3510.55	319
3509.26	322
3507.98	335.5
3506.69	332.5
3505.41	342
3504.12	345.5
3502.83	346
3501.54	343.5
3500.26	344
3498.97	356.5
3497.68	355
3496.39	374
3495.1	370
3493.81	395
3492.52	390
3491.23	383.5
3489.94	381.5
3488.65	404.5
3487.36	413
3486.07	416
3484.78	422
3483.49	416
3482.19	420.5
3480.9	440
3479.61	445
3478.31	470.5
3477.02	447
3475.73	454
3474.43	446.5
3473.14	452
3471.84	454
3470.54	467.5
3469.25	468.5
3467.95	459.5
3466.66	496.5
3465.36	499
3464.06	486
3462.76	514.5
3461.46	479.5
3460.17	487
3458.87	504
3457.57	507
3456.27	512
3454.97	523
3453.67	504.5
3452.37	505
3451.07	533.5
3449.77	537
3448.47	540
3447.16	556.5
3445.86	555.5
3444.56	560.5
3443.26	576
3441.95	558
3440.65	606.5
3439.35	592
3438.04	603.5
3436.74	607.5
3435.43	630
3434.13	639.5
3432.82	667
3431.52	658.5
3430.21	683
3428.9	682.5
3427.6	696.5
3426.29	723.5
3424.98	719.5
3423.67	743
3422.36	752.5
3421.06	766.5
3419.75	759.5
3418.44	785.5
3417.13	780.5
3415.82	788.5
3414.51	800
3413.2	814
3411.88	832.5
3410.57	790
3409.26	842
3407.95	796
3406.64	826.5
3405.32	853.5
3404.01	844.5
3402.7	871
3401.38	878
3400.07	899
3398.75	866
3397.44	883
3396.12	878
3394.81	911
3393.49	924
3392.18	924.5
3390.86	929
3389.54	950
3388.23	952.5
3386.91	967.5
3385.59	976
3384.27	979.5
3382.95	966.5
3381.63	957.5
3380.31	1003
3378.99	985
3377.67	1027
3376.35	1018.5
3375.03	1017.5
3373.71	1058.5
3372.39	1057
3371.07	1075
3369.75	1062
3368.42	1052
3367.1	1063.5
3365.78	1080.5
3364.45	1101.5
3363.13	1118
3361.81	1121.5
3360.48	1121.5
3359.16	1095.5
3357.83	1145.5
3356.51	1132
3355.18	1151.5
3353.85	1148
3352.53	1157
3351.2	1170.5
3349.87	1152
3348.54	1149.5
3347.22	1177
3345.89	1159
3344.56	1190.5
3343.23	1210
3341.9	1205.5
3340.57	1195.5
3339.24	1208.5
3337.91	1197
3336.58	1214.5
3335.25	1216
3333.92	1226
3332.58	1212
3331.25	1235.5
3329.92	1241.5
3328.59	1252
3327.25	1246
3325.92	1247.5
3324.58	1239
3323.25	1274
3321.92	1253
3320.58	1228
3319.25	1251
3317.91	1266
3316.57	1262
3315.24	1303
3313.9	1282.5
3312.56	1308
3311.23	1320.5
3309.89	1302.5
3308.55	1321
3307.21	1339.5
3305.87	1310.5
3304.53	1321.5
3303.19	1338
3301.85	1347
3300.51	1358
3299.17	1347
3297.83	1384
3296.49	1356
3295.15	1378.5
3293.81	1396
3292.46	1400
3291.12	1412.5
3289.78	1423
3288.43	1399.5
3287.09	1414
3285.75	1396.5
3284.4	1413.5
3283.06	1410.5
3281.71	1426.5
3280.37	1419
3279.02	1467
3277.67	1444
3276.33	1461
3274.98	1441
3273.63	1462
3272.28	1504.5
3270.94	1497.5
3269.59	1490
3268.24	1547.5
3266.89	1522
3265.54	1575
3264.19	1596.5
3262.84	1612
3261.49	1614
3260.14	1622.5
3258.79	1673
3257.44	1669.5
3256.08	1718
3254.73	1752.5
3253.38	1824
3252.03	1831.5
3250.67	1879.5
3249.32	1927.5
3247.96	1983
3246.61	2037
3245.26	2063
3243.9	2144
3242.54	2181
3241.19	2247.5
3239.83	2279.5
3238.48	2336.5
3237.12	2468.5
3235.76	2507
3234.41	2535
3233.05	2566
3231.69	2665.5
3230.33	2696
3228.97	2783
3227.61	2814
3226.25	2856.5
3224.89	2929
3223.53	2961
3222.17	3030
3220.81	3056
3219.45	3111
3218.09	3150.5
3216.72	3169
3215.36	3174.5
3214	3182.5
3212.63	3249
3211.27	3272.5
3209.91	3283
3208.54	3298.5
3207.18	3329.5
3205.81	3365
3204.45	3360.5
3203.08	3398
3201.71	3404.5
3200.35	3459
3198.98	3422
3197.61	3460.5
3196.25	3484
3194.88	3493.5
3193.51	3505.5
3192.14	3516
3190.77	3548
3189.4	3555
3188.03	3572
3186.66	3578.5
3185.29	3568
3183.92	3666
3182.55	3618
3181.18	3651
3179.81	3710.5
3178.44	3736
3177.06	3740
3175.69	3730
3174.32	3796
3172.94	3799.5
3171.57	3859
3170.2	3907
3168.82	3888
3167.45	3908.5
3166.07	3923
3164.69	3915
3163.32	3964
3161.94	4039
3160.56	4087.5
3159.19	4113
3157.81	4124.5
3156.43	4137.5
3155.05	4220
3153.67	4240
3152.3	4284.5
3150.92	4288
3149.54	4321
3148.16	4343.5
3146.78	4336.5
3145.4	4369
3144.01	4422
3142.63	4490
3141.25	4439.5
3139.87	4451.5
3138.49	4553
3137.1	4544
3135.72	4579
3134.34	4577.5
3132.95	4612.5
3131.57	4598
3130.18	4625.5
3128.8	4707
3127.41	4741.5
3126.03	4749
3124.64	4827.5
3123.25	4839
3121.87	4843
3120.48	4938.5
3119.09	4941.5
3117.7	4940
3116.32	4979.5
3114.93	5040.5
3113.54	5025.5
3112.15	5069.5
3110.76	5055.5
3109.37	5155.5
3107.98	5099
3106.59	5200.5
3105.2	5197.5
3103.8	5176.5
3102.41	5218
3101.02	5230.5
3099.63	5282
3098.23	5325
3096.84	5255
3095.45	5316
3094.05	5332
3092.66	5357.5
3091.26	5356.5
3089.87	5404
3088.47	5425.5
3087.08	5424.5
3085.68	5471
3084.28	5495
3082.89	5535
3081.49	5523
3080.09	5513.5
3078.69	5529
3077.3	5534
3075.9	5573.5
3074.5	5598
3073.1	5533.5
3071.7	5655.5
3070.3	5624.5
3068.9	5610
3067.5	5618
3066.09	5625
3064.69	5676
3063.29	5726
3061.89	5653.5
3060.48	5730
3059.08	5718
3057.68	5722
3056.27	5702.5
3054.87	5790.5
3053.46	5793
3052.06	5761
3050.65	5722
3049.25	5778
3047.84	5840
3046.44	5846
3045.03	5943
3043.62	5901
3042.21	5879.5
3040.81	5929.5
3039.4	5939
3037.99	6020
3036.58	5956
3035.17	5979
3033.76	6035.5
3032.35	6073
3030.94	6069
3029.53	6058.5
3028.12	6017.5
3026.71	6093.5
3025.29	6087
3023.88	6090.5
3022.47	6031
3021.06	6068.5
3019.64	6043.5
3018.23	6060.5
3016.82	6118.5
3015.4	6095
3013.99	6083
3012.57	6097
3011.15	6141
3009.74	6120
3008.32	6162.5
3006.91	6157
3005.49	6186.5
3004.07	6192
3002.65	6204.5
3001.24	6186
2999.82	6241.5
2998.4	6288
2996.98	6322
2995.56	6332.5
2994.14	6448
2992.72	6379
2991.3	6411
2989.88	6419
2988.46	6489
2987.03	6496.5
2985.61	6597.5
2984.19	6524.5
2982.77	6645.5
2981.34	6670.5
2979.92	6587
2978.49	6721
2977.07	6759.5
2975.65	6753
2974.22	6762.5
2972.79	6832
2971.37	6820
2969.94	6851
2968.52	6887
2967.09	6870
2965.66	6920.5
2964.23	6940.5
2962.81	6973
2961.38	6999
2959.95	6982
2958.52	7038.5
2957.09	7029
2955.66	7023.5
2954.23	7022
2952.8	6998
2951.37	7002.5
2949.94	7092
2948.5	7026
2947.07	7102.5
2945.64	7117
2944.21	7058.5
2942.77	7106
2941.34	7108.5
2939.91	7159.5
2938.47	7163
2937.04	7083.5
2935.6	7154.5
2934.17	7215.5
2932.73	7267
2931.29	7272
2929.86	7247
2928.42	7348.5
2926.98	7293.5
2925.55	7328
2924.11	7233
2922.67	7327.5
2921.23	7295
2919.79	7344.5
2918.35	7388
2916.91	7384
2915.47	7400.5
2914.03	7404.5
2912.59	7421.5
2911.15	7436.5
2909.71	7425.5
2908.26	7470
2906.82	7428
2905.38	7458
2903.94	7433
2902.49	7513.5
2901.05	7554
2899.6	7491.5
2898.16	7564.5
2896.71	7566
2895.27	7572
2893.82	7590
2892.38	7574
2890.93	7561
2889.48	7589.5
2888.03	7528
2886.59	7608
2885.14	7618
2883.69	7623.5
2882.24	7663.5
2880.79	7684
2879.34	7650
2877.89	7655
2876.44	7679
2874.99	7759.5
2873.54	7650
2872.09	7709.5
2870.64	7700.5
2869.18	7694
2867.73	7645.5
2866.28	7675
2864.83	7747.5
2863.37	7726
2861.92	7770.5
2860.46	7742
2859.01	7681.5
2857.55	7741
2856.1	7768
2854.64	7763
2853.19	7673
2851.73	7678
2850.27	7728
2848.81	7675.5
2847.36	7717.5
2845.9	7755.5
2844.44	7762.5
2842.98	7703
2841.52	7708
2840.06	7777.5
2838.6	7692.5
2837.14	7677.5
2835.68	7715
2834.22	7732
2832.76	7742
2831.3	7793
2829.83	7779.5
2828.37	7741
2826.91	7719.5
2825.44	7698
2823.98	7679
2822.52	7692
2821.05	7716
2819.59	7686
2818.12	7700.5
2816.66	7660
2815.19	7697
2813.72	7648
2812.26	7646.5
2810.79	7628
2809.32	7618.5
2807.85	7667
2806.38	7615
2804.92	7589
2803.45	7602
2801.98	7613.5
2800.51	7573.5
2799.04	7520.5
2797.57	7570.5
2796.1	7623.5
2794.62	7551
2793.15	7541.5
2791.68	7508.5
2790.21	7527
2788.73	7503
2787.26	7526
2785.79	7561
2784.31	7590.5
2782.84	7520.5
2781.36	7571.5
2779.89	7540.5
2778.41	7575.5
2776.94	7633.5
2775.46	7591
2773.99	7589
2772.51	7653
2771.03	7712.5
2769.55	7680
2768.07	7758
2766.6	7764
2765.12	7768
2763.64	7815.5
2762.16	7768
2760.68	7741
2759.2	7708.5
2757.72	7800
2756.24	7794
2754.75	7702.5
2753.27	7700
2751.79	7735
2750.31	7796.5
2748.82	7769
2747.34	7737.5
2745.86	7776
2744.37	7699
2742.89	7735
2741.4	7706.5
2739.92	7751
2738.43	7685.5
2736.94	7665
2735.46	7702
2733.97	7702
2732.48	7686.5
2731	7600
2729.51	7654
2728.02	7712.5
2726.53	7686.5
2725.04	7696.5
2723.55	7649
2722.06	7651.5
2720.57	7688.5
2719.08	7685.5
2717.59	7703
2716.1	7706
2714.61	7642.5
2713.11	7630
2711.62	7727.5
2710.13	7681.5
2708.64	7731.5
2707.14	7655
2705.65	7709
2704.15	7660.5
2702.66	7609
2701.16	7630.5
2699.67	7636
2698.17	7655.5
2696.67	7685.5
2695.18	7657
2693.68	7604.5
2692.18	7672
2690.69	7560
2689.19	7590
2687.69	7576.5
2686.19	7548
2684.69	7438.5
2683.19	7505.5
2681.69	7489
2680.19	7459.5
2678.69	7384
2677.19	7429
2675.68	7480
2674.18	7434.5
2672.68	7418.5
2671.18	7436
2669.67	7356
2668.17	7356
2666.66	7386
2665.16	7304.5
2663.66	7338
2662.15	7415
2660.64	7405
2659.14	7357
2657.63	7373.5
2656.13	7391.5
2654.62	7293.5
2653.11	7316.5
2651.6	7279.5
2650.09	7298
2648.58	7275.5
2647.08	7226
2645.57	7253.5
2644.06	7219.5
2642.55	7158
2641.04	7164
2639.52	7148.5
2638.01	7064
2636.5	7143
2634.99	7098
2633.48	7092.5
2631.96	7037.5
2630.45	7051
2628.94	6979.5
2627.42	7097
2625.91	7004
2624.39	7057.5
2622.88	7008
2621.36	7003
2619.85	6990
2618.33	6975
2616.81	6961
2615.3	6907.5
2613.78	6964
2612.26	6961.5
2610.74	6971.5
2609.22	6981.5
2607.7	6988
2606.18	6984.5
2604.66	6935
2603.14	6884.5
2601.62	6862.5
2600.1	6802
2598.58	6830
2597.06	6780
2595.54	6771.5
2594.01	6760.5
2592.49	6689.5
2590.97	6780.5
2589.44	6686
2587.92	6748
2586.39	6678.5
2584.87	6706
2583.34	6654
2581.82	6630
2580.29	6667.5
2578.76	6664.5
2577.24	6672
2575.71	6556
2574.18	6637.5
2572.65	6606.5
2571.13	6562
2569.6	6629
2568.07	6588
2566.54	6575.5
2565.01	6570.5
2563.48	6599.5
2561.95	6508.5
2560.42	6592
2558.88	6556
2557.35	6575
2555.82	6543.5
2554.29	6491
2552.75	6467
2551.22	6454.5
2549.69	6412
2548.15	6431.5
2546.62	6405
2545.08	6371
2543.55	6406
2542.01	6385
2540.47	6390
2538.94	6344
2537.4	6287.5
2535.86	6328.5
2534.33	6238.5
2532.79	6212.5
2531.25	6233.5
2529.71	6229.5
2528.17	6175
2526.63	6239
2525.09	6065.5
2523.55	6105
2522.01	6193
2520.47	6161
2518.92	6125
2517.38	6119
2515.84	6086
2514.3	6037.5
2512.75	6030
2511.21	6064
2509.67	6020.5
2508.12	5992.5
2506.58	5962
2505.03	6001.5
2503.49	5985.5
2501.94	5965
2500.39	5921.5
2498.85	5912
2497.3	5935
2495.75	5892
2494.2	5824
2492.65	5823
2491.11	5823.5
2489.56	5800.5
2488.01	5833.5
2486.46	5756.5
2484.91	5786
2483.36	5685
2481.8	5740
2480.25	5656.5
2478.7	5673
2477.15	5705.5
2475.6	5651
2474.04	5613
2472.49	5613.5
2470.93	5586.5
2469.38	5484
2467.83	5542.5
2466.27	5505
2464.71	5449
2463.16	5426.5
2461.6	5448
2460.05	5425.5
2458.49	5354
2456.93	5365.5
2455.37	5388
2453.81	5347
2452.26	5344
2450.7	5300.5
2449.14	5253.5
2447.58	5242.5
2446.02	5236
2444.46	5159
2442.9	5175.5
2441.33	5167
2439.77	5161
2438.21	5156.5
2436.65	5112.5
2435.08	5140.5
2433.52	5081
2431.96	5149.5
2430.39	5136
2428.83	5096
2427.26	5101
2425.7	5100.5
2424.13	5025
2422.56	5054
2421	5026.5
2419.43	5035.5
2417.86	5015.5
2416.3	4955.5
2414.73	4977.5
2413.16	4961.5
2411.59	4967.5
2410.02	4952.5
2408.45	4889
2406.88	4914.5
2405.31	4918.5
2403.74	4952
2402.17	4877
2400.6	4929.5
2399.02	4881
2397.45	4869.5
2395.88	4865.5
2394.3	4837
2392.73	4842.5
2391.16	4814.5
2389.58	4781.5
2388.01	4764.5
2386.43	4757
2384.86	4749.5
2383.28	4772
2381.7	4764
2380.13	4775
2378.55	4757
2376.97	4780.5
2375.39	4740.5
2373.81	4678
2372.23	4737.5
2370.65	4717.5
2369.07	4648.5
2367.49	4696.5
2365.91	4716
2364.33	4657
2362.75	4677
2361.17	4687.5
2359.59	4668
2358.01	4669.5
2356.42	4626
2354.84	4621
2353.25	4587.5
2351.67	4648.5
2350.09	4630
2348.5	4639.5
2346.92	4611
2345.33	4635
2343.74	4596
2342.16	4587
2340.57	4655.5
2338.98	4504
2337.39	4510.5
2335.81	4543
2334.22	4557
2332.63	4500.5
2331.04	4518
2329.45	4500
2327.86	4488
2326.27	4507
2324.68	4490.5
2323.09	4470.5
2321.49	4466
2319.9	4437.5
2318.31	4439
2316.72	4416.5
2315.12	4379.5
2313.53	4360
2311.93	4298.5
2310.34	4350.5
2308.74	4278
2307.15	4289
2305.55	4321.5
2303.96	4281
2302.36	4227.5
2300.76	4214
2299.17	4234
2297.57	4194.5
2295.97	4162
2294.37	4157
2292.77	4134.5
2291.17	4119
2289.57	4083
2287.97	4120
2286.37	4087.5
2284.77	4091
2283.17	4082
2281.57	4091
2279.96	4068
2278.36	4052.5
2276.76	4067.5
2275.15	4028
2273.55	4020.5
2271.95	4041.5
2270.34	3983
2268.74	3992
2267.13	3952.5
2265.52	3950
2263.92	3911
2262.31	3920.5
2260.7	3848
2259.1	3878
2257.49	3867.5
2255.88	3816
2254.27	3833.5
2252.66	3842
2251.05	3873.5
2249.44	3839.5
2247.83	3860.5
2246.22	3803.5
2244.61	3798
2243	3859.5
2241.39	3811
2239.77	3866.5
2238.16	3767
2236.55	3743.5
2234.93	3745
2233.32	3722.5
2231.7	3735
2230.09	3656
2228.47	3697.5
2226.86	3660.5
2225.24	3628.5
2223.63	3584
2222.01	3632.5
2220.39	3617
2218.77	3603.5
2217.16	3584.5
2215.54	3613.5
2213.92	3570
2212.3	3524
2210.68	3503
2209.06	3556.5
2207.44	3494
2205.82	3498.5
2204.19	3474.5
2202.57	3495
2200.95	3455
2199.33	3463
2197.7	3411.5
2196.08	3449.5
2194.46	3442.5
2192.83	3433
2191.21	3410.5
2189.58	3455
2187.96	3432.5
2186.33	3384
2184.7	3377.5
2183.08	3382
2181.45	3367.5
2179.82	3333.5
2178.19	3344
2176.57	3336
2174.94	3308.5
2173.31	3285
2171.68	3263
2170.05	3265.5
2168.42	3249.5
2166.79	3219.5
2165.16	3238
2163.52	3236
2161.89	3221
2160.26	3127.5
2158.63	3140.5
2156.99	3176
2155.36	3141
2153.73	3167.5
2152.09	3172.5
2150.46	3127.5
2148.82	3103.5
2147.18	3101
2145.55	3162.5
2143.91	3111.5
2142.27	3083.5
2140.64	3059
2139	3028.5
2137.36	3051.5
2135.72	3021.5
2134.08	2993
2132.44	2993
2130.8	2970
2129.16	2960.5
2127.52	2962.5
2125.88	2938
2124.24	2887.5
2122.6	2904.5
2120.95	2876
2119.31	2859.5
2117.67	2881
2116.02	2817
2114.38	2831.5
2112.74	2835
2111.09	2801
2109.45	2803
2107.8	2777
2106.15	2780.5
2104.51	2794.5
2102.86	2783.5
2101.21	2757
2099.56	2716.5
2097.92	2725
2096.27	2729
2094.62	2708
2092.97	2747
2091.32	2726
2089.67	2699.5
2088.02	2767
2086.37	2728
2084.72	2677
2083.06	2676.5
2081.41	2691
2079.76	2658
2078.1	2678
2076.45	2665
2074.8	2666
2073.14	2649.5
2071.49	2644
2069.83	2665
2068.18	2636.5
2066.52	2652.5
2064.86	2641
2063.21	2622
2061.55	2620
2059.89	2595
2058.23	2620
2056.57	2580
2054.92	2600.5
2053.26	2577
2051.6	2574.5
2049.94	2576.5
2048.27	2567.5
2046.61	2553.5
2044.95	2545
2043.29	2554.5
2041.63	2521.5
2039.97	2489
2038.3	2470.5
2036.64	2427.5
2034.97	2441.5
2033.31	2405
2031.64	2430
2029.98	2393.5
2028.31	2398
2026.65	2359.5
2024.98	2370
2023.31	2319
2021.65	2338
2019.98	2314.5
2018.31	2336
2016.64	2293.5
2014.97	2288
2013.3	2306.5
2011.63	2271
2009.96	2271
2008.29	2276.5
2006.62	2285.5
2004.95	2268.5
2003.28	2246.5
2001.6	2226.5
1999.93	2187.5
1998.26	2201.5
1996.58	2213.5
1994.91	2228
1993.24	2199
1991.56	2180.5
1989.89	2193.5
1988.21	2186
1986.53	2146.5
1984.86	2186
1983.18	2138.5
1981.5	2129.5
1979.82	2129
1978.15	2147.5
1976.47	2128
1974.79	2102
1973.11	2122
1971.43	2118.5
1969.75	2110
1968.07	2090
1966.38	2061
1964.7	2062
1963.02	2052
1961.34	2047
1959.66	2017.5
1957.97	2016.5
1956.29	2026
1954.6	2020
1952.92	2024.5
1951.23	1964
1949.55	2000
1947.86	2003.5
1946.18	1954.5
1944.49	1968.5
1942.8	1932
1941.11	1925
1939.43	1964.5
1937.74	1934
1936.05	1949.5
1934.36	1954
1932.67	1936
1930.98	1915.5
1929.29	1888.5
1927.6	1896.5
1925.91	1879
1924.21	1879.5
1922.52	1865.5
1920.83	1845.5
1919.14	1825.5
1917.44	1842
1915.75	1831
1914.05	1812.5
1912.36	1811.5
1910.66	1816.5
1908.97	1790.5
1907.27	1825
1905.58	1807
1903.88	1753.5
1902.18	1732.5
1900.48	1732.5
1898.79	1756
1897.09	1749.5
1895.39	1741
1893.69	1713.5
1891.99	1689
1890.29	1706.5
1888.59	1699.5
1886.89	1691.5
1885.18	1697.5
1883.48	1647.5
1881.78	1642
1880.08	1641
1878.37	1613.5
1876.67	1611.5
1874.96	1629
1873.26	1601.5
1871.55	1597
1869.85	1617
1868.14	1576.5
1866.44	1566
1864.73	1575.5
1863.02	1586
1861.32	1551.5
1859.61	1559.5
1857.9	1517.5
1856.19	1544
1854.48	1557
1852.77	1551.5
1851.06	1525
1849.35	1507.5
1847.64	1521.5
1845.93	1508
1844.21	1527
1842.5	1511.5
1840.79	1494
1839.08	1507
1837.36	1495.5
1835.65	1499
1833.93	1484
1832.22	1481
1830.5	1484
1828.79	1449.5
1827.07	1457.5
1825.36	1457.5
1823.64	1401.5
1821.92	1437.5
1820.2	1413
1818.48	1406.5
1816.77	1393
1815.05	1367.5
1813.33	1407.5
1811.61	1403
1809.89	1377
1808.16	1380.5
1806.44	1390
1804.72	1350
1803	1331.5
1801.28	1342.5
1799.55	1356
1797.83	1335
1796.11	1314.5
1794.38	1323
1792.66	1337
1790.93	1307
1789.21	1286.5
1787.48	1288.5
1785.75	1296
1784.03	1296.5
1782.3	1252.5
1780.57	1255
1778.84	1271
1777.11	1282.5
1775.38	1242
1773.66	1269
1771.93	1247.5
1770.19	1271
1768.46	1233.5
1766.73	1244.5
1765	1250
1763.27	1221.5
1761.54	1236.5
1759.8	1233
1758.07	1224
1756.34	1267.5
1754.6	1242.5
1752.87	1223.5
1751.13	1204
1749.4	1214.5
1747.66	1199.5
1745.92	1212
1744.19	1190
1742.45	1190.5
1740.71	1180.5
1738.97	1193
1737.23	1180
1735.49	1161
1733.75	1197
1732.01	1139
1730.27	1186
1728.53	1136.5
1726.79	1148.5
1725.05	1158.5
1723.31	1134
1721.57	1123
1719.82	1130
1718.08	1095
1716.34	1120
1714.59	1131.5
1712.85	1101.5
1711.1	1085
1709.36	1094
1707.61	1090.5
1705.86	1097.5
1704.12	1074.5
1702.37	1087.5
1700.62	1063
1698.87	1072
1697.12	1059
1695.37	1058.5
1693.62	1050
1691.87	1060
1690.12	1022.5
1688.37	1012
1686.62	1006
1684.87	1012
1683.12	1014.5
1681.36	997.5
1679.61	1016.5
1677.86	981
1676.1	1016.5
1674.35	1001
1672.59	981.5
1670.84	974.5
1669.08	1005
1667.33	990.5
1665.57	964
1663.81	982.5
1662.06	990.5
1660.3	956
1658.54	969.5
1656.78	977.5
1655.02	980.5
1653.26	948
1651.5	960
1649.74	972
1647.98	937.5
1646.22	939.5
1644.46	948
1642.7	936.5
1640.93	924
1639.17	921
1637.41	925.5
1635.64	938.5
1633.88	911.5
1632.11	911.5
1630.35	899
1628.58	889.5
1626.81	876
1625.05	875
1623.28	881.5
1621.51	862.5
1619.75	857
1617.98	867
1616.21	859
1614.44	880
1612.67	856.5
1610.9	859
1609.13	866
1607.36	854
1605.58	846.5
1603.81	839.5
1602.04	840.5
1600.27	835
1598.49	855
1596.72	838
1594.95	839.5
1593.17	828
1591.4	843.5
1589.62	834
1587.84	834
1586.07	833.5
1584.29	836.5
1582.51	811
1580.74	805.5
1578.96	798.5
1577.18	824.5
1575.4	793
1573.62	827
1571.84	783
1570.06	813.5
1568.28	799
1566.5	779
1564.72	778.5
1562.93	778.5
1561.15	789.5
1559.37	751
1557.58	764.5
1555.8	757
1554.02	764
1552.23	784.5
1550.45	768
1548.66	745.5
1546.87	761.5
1545.09	743.5
1543.3	732.5
1541.51	723
1539.72	736
1537.94	732
1536.15	721
1534.36	715.5
1532.57	701
1530.78	706.5
1528.99	685.5
1527.2	703.5
1525.4	687
1523.61	687.5
1521.82	692
1520.03	688.5
1518.23	688.5
1516.44	675.5
1514.65	681
1512.85	693
1511.06	675
1509.26	690.5
1507.46	680
1505.67	685.5
1503.87	680.5
1502.07	690.5
1500.28	676
1498.48	654
1496.68	639
1494.88	669
1493.08	659
1491.28	651
1489.48	667
1487.68	645
1485.88	660
1484.08	662
1482.27	655.5
1480.47	651
1478.67	629
1476.86	642.5
1475.06	643.5
1473.25	637
1471.45	624
1469.64	641
1467.84	631.5
1466.03	641
1464.23	629
1462.42	630
1460.61	627
1458.8	616.5
1456.99	613.5
1455.18	613.5
1453.37	613.5
1451.56	628.5
1449.75	606.5
1447.94	601.5
1446.13	634.5
1444.32	605
1442.51	600.5
1440.7	595
1438.88	588.5
1437.07	585
1435.26	573
1433.44	578
1431.63	594.5
1429.81	600.5
1427.99	580.5
1426.18	584.5
1424.36	588
1422.54	584.5
1420.73	570
1418.91	571
1417.09	568.5
1415.27	560.5
1413.45	562
1411.63	547.5
1409.81	554.5
1407.99	544
1406.17	569.5
1404.35	552.5
1402.53	555.5
1400.7	538
1398.88	521.5
1397.06	510
1395.23	515
1393.41	530.5
1391.58	526
1389.76	528.5
1387.93	523.5
1386.11	524.5
1384.28	529
1382.45	524
1380.62	537.5
1378.8	522
1376.97	518.5
1375.14	504.5
1373.31	510
1371.48	508
1369.65	497.5
1367.82	486.5
1365.99	508.5
1364.16	504
1362.32	506
1360.49	500
1358.66	503
1356.82	487.5
1354.99	486.5
1353.16	489
1351.32	487
1349.48	478
1347.65	488
1345.81	490
1343.98	482.5
1342.14	462.5
1340.3	451.5
1338.46	491
1336.62	457.5
1334.79	468.5
1332.95	447.5
1331.11	460
1329.27	461.5
1327.42	460
1325.58	459
1323.74	466.5
1321.9	453
1320.06	438
1318.21	464
1316.37	433.5
1314.53	443
1312.68	437
1310.84	441.5
1308.99	443
1307.15	436
1305.3	445.5
1303.45	448.5
1301.61	434
1299.76	426
1297.91	451
1296.06	419
1294.21	423.5
1292.36	424
1290.51	408
1288.66	414.5
1286.81	424.5
1284.96	435
1283.11	419.5
1281.26	428.5
1279.4	415.5
1277.55	407.5
1275.7	419.5
1273.84	409.5
1271.99	395.5
1270.13	400.5
1268.28	395.5
1266.42	405.5
1264.56	392.5
1262.71	387.5
1260.85	403.5
1258.99	400.5
1257.13	388.5
1255.27	384.5
1253.41	393.5
1251.56	369
1249.7	363.5
1247.83	384
1245.97	366.5
1244.11	384
1242.25	371
1240.39	385.5
1238.52	364
1236.66	379
1234.8	379
1232.93	377.5
1231.07	373
1229.2	368
1227.34	374.5
1225.47	363.5
1223.6	345
1221.74	355.5
1219.87	370
1218	361
1216.13	367.5
1214.26	360.5
1212.39	352
1210.53	356
1208.65	360
1206.78	341
1204.91	338
1203.04	338
1201.17	342
1199.3	352.5
1197.42	351.5
1195.55	343
1193.68	351.5
1191.8	347.5
1189.93	350
1188.05	330
1186.17	335.5
1184.3	338
1182.42	330.5
1180.54	323.5
1178.67	324.5
1176.79	335
1174.91	329
1173.03	335.5
1171.15	326
1169.27	341
1167.39	321.5
1165.51	321.5
1163.63	325.5
1161.75	308.5
1159.86	318
1157.98	333
1156.1	309.5
1154.21	329
1152.33	325.5
1150.44	320
1148.56	323
1146.67	315.5
1144.79	313.5
1142.9	313
1141.01	300
1139.12	306.5
1137.24	299
1135.35	308.5
1133.46	305
1131.57	311.5
1129.68	308
1127.79	307.5
1125.9	297
1124.01	315.5
1122.12	311.5
1120.22	293
1118.33	286
1116.44	295.5
1114.54	288.5
1112.65	291.5
1110.75	295
1108.86	297
1106.96	289
1105.07	286
1103.17	296.5
1101.27	285
1099.38	297.5
1097.48	290
1095.58	283.5
1093.68	281
1091.78	280.5
1089.88	278.5
1087.98	294
1086.08	283.5
1084.18	281.5
1082.28	285.5
1080.38	280.5
1078.47	269.5
1076.57	273.5
1074.67	281
1072.76	273.5
1070.86	280.5
1068.95	254.5
1067.05	267.5
1065.14	270
1063.24	271.5
1061.33	256.5
1059.42	273.5
1057.51	265
1055.6	262
1053.7	255
1051.79	266.5
1049.88	254
1047.97	262.5
1046.06	261
1044.14	273.5
1042.23	258.5
1040.32	264
1038.41	270.5
1036.5	264
1034.58	264.5
1032.67	260
1030.75	264.5
1028.84	265.5
1026.92	259
1025.01	270
1023.09	278
1021.17	282.5
1019.26	271
1017.34	278.5
1015.42	270.5
1013.5	271
1011.58	269.5
1009.66	272
1007.74	267
1005.82	272
1003.9	297
1001.98	304
1000.06	300
998.134	307.5
996.212	311
994.288	304
992.364	325.5
990.44	342
988.515	350.5
986.589	359
984.663	378.5
982.737	372.5
980.81	372
978.883	390.5
976.955	397.5
975.027	385.5
973.098	401
971.169	388
969.239	383
967.308	391.5
965.378	379.5
963.447	394.5
961.516	389
959.583	408.5
957.65	407
955.718	431.5
953.784	413
951.85	439.5
949.916	422
947.981	418
946.045	427.5
944.109	442.5
942.173	431.5
940.236	444
938.298	453.5
936.36	448
934.422	413.5
932.484	382
930.544	355.5
928.604	319
926.664	308
924.724	265.5
922.782	257.5
920.84	259
918.898	257.5
916.955	259
915.012	244.5
913.068	255.5
911.124	257
909.18	256
907.235	243
905.289	251.5
903.343	245.5
901.397	232
899.45	241.5
897.502	239
895.554	252.5
893.605	242
891.657	244
889.707	236.5
887.758	245
885.807	232.5
883.856	245
881.905	231
879.953	229
878.001	236
876.048	252
874.094	232
872.14	230.5
870.186	241
868.232	231
866.276	243.5
864.321	244
862.365	257
860.408	237
858.451	225.5
856.493	245.5
854.535	218.5
852.576	217.5
850.617	214
848.658	224.5
846.698	232.5
844.737	230.5
842.776	224
840.814	224
838.852	235.5
836.89	227.5
834.927	220.5
832.963	223
830.999	219.5
829.035	222
827.07	228
825.105	223.5
823.139	230
821.172	225
819.206	220
817.238	225.5
815.27	222.5
813.301	227
811.333	213.5
809.363	216.5
807.394	217
805.424	220
803.453	222
801.482	233
799.509	214
797.538	227.5
795.565	215.5
793.592	216
791.618	214.5
789.643	219
787.669	200.5
785.693	211
783.718	210.5
781.742	208.5
779.765	204
777.788	213.5
775.811	202
773.832	215
771.853	213
769.875	212.5
767.895	206.5
765.915	196
763.934	204
761.953	198
759.972	202.5
757.99	190
756.007	206
754.024	202.5
752.041	207
750.056	201.5
748.072	209
746.087	207
744.102	193
742.116	205
740.13	204
738.143	181.5
736.155	188
734.167	200.5
732.179	199
730.19	198.5
728.2	204
726.21	200
724.22	196
722.229	202
720.237	195
718.246	196.5
716.253	193.5
714.26	187
712.267	208.5
710.273	199.5
708.279	205.5
706.284	218.5
704.289	209.5
702.293	209.5
700.296	203
698.3	206
696.303	195.5
694.305	203
692.307	205
690.307	218.5
688.308	215
686.309	208
684.308	229
682.308	230
680.306	225.5
678.304	226.5
676.302	231.5
674.3	231
672.296	235
670.293	228
668.289	236
666.284	227.5
664.278	241
662.273	241.5
660.266	230
658.26	250
656.252	239.5
654.244	230.5
652.237	242.5
650.227	220.5
648.218	222.5
646.209	236.5
644.198	229.5
642.188	247
640.177	243
638.165	256
636.153	238.5
634.14	251.5
632.128	240
630.113	255.5
628.099	242
626.085	246
624.07	240.5
622.054	245
620.038	254.5
618.021	238
616.004	247
613.986	241
611.968	252
609.949	241.5
607.93	231.5
605.911	228.5
603.891	237
601.87	219.5
599.848	226
597.827	227
595.805	223
593.782	232.5
591.759	239
589.735	239
587.711	233.5
585.687	232
583.661	239.5
581.636	228
579.609	227
577.583	238.5
575.555	237.5
573.527	236
571.5	240.5
569.471	255.5
567.441	271
565.412	267
563.382	266
561.351	278.5
559.32	267
557.289	273.5
555.257	288
553.223	285
551.19	310
549.157	315
547.122	332
545.088	360.5
543.053	383.5
541.017	415
538.981	447.5
536.943	521
534.907	644.5
532.869	859.5
530.831	1238
528.792	1807
526.752	2862
524.713	4360.5
522.673	5701.5
520.632	5883
518.591	4888.5
516.549	3526.5
514.507	2335
512.464	1494
510.42	1012
508.377	693
506.332	551.5
504.288	483.5
502.242	424
500.196	408.5
498.15	375.5
496.104	371.5
494.056	337.5
492.008	345
489.96	337.5
487.911	321
485.862	309
483.812	306.5
481.761	301.5
479.71	317
477.659	302.5
475.607	303
473.555	288
471.502	291.5
469.448	282
467.395	283
465.34	277.5
463.285	272
461.23	271
459.174	286
457.118	280
455.061	294
453.003	293
450.945	302
448.887	313
446.828	304.5
444.768	300
442.708	325
440.647	315
438.587	320.5
436.525	317.5
434.463	335.5
432.4	327
430.337	335.5
428.274	329.5
426.21	339
424.145	330
422.079	322
420.014	313
417.948	321
415.882	338
413.814	334
411.746	336
409.679	325.5
407.609	331
405.54	347
403.47	348
401.401	341
399.329	345
397.258	350.5
395.187	347
393.114	332.5
391.041	333.5
388.968	341
386.895	364.5
384.82	353.5
382.745	364
380.67	358.5
378.594	373.5
376.517	360
374.44	370.5
372.363	354
370.286	373.5
368.207	378.5
366.128	367
364.049	384.5
361.969	381
359.888	394
357.807	394
355.725	383
353.643	401
351.561	403
349.477	408.5
347.394	414.5
345.31	412.5
343.226	418
341.141	439.5
339.055	433
336.968	449.5
334.882	454.5
332.795	474.5
330.707	461
328.618	470.5
326.53	481.5
324.44	485
322.351	487
320.26	507
318.17	545
316.078	553.5
313.987	584
311.895	600
309.802	633
307.708	660
305.614	686
303.52	688.5
301.425	686.5
299.329	641.5
297.233	641.5
295.137	624
293.039	583.5
290.942	572.5
288.844	592
286.745	564.5
284.647	558.5
282.546	573.5
280.446	558.5
278.346	564
276.245	541.5
274.143	550
272.041	526
269.939	546
267.835	548.5
265.731	551.5
263.627	547
261.522	567.5
259.417	596
257.311	575.5
255.204	583
253.098	586
250.99	587.5
248.882	590.5
246.774	605
244.664	602
242.555	607
240.445	623.5
238.334	629.5
236.223	634
234.112	644
232	636.5
229.888	650
227.775	651.5
225.661	641
223.546	667.5
221.431	683
219.316	696
217.201	693
215.084	711
212.967	723
210.85	714.5
208.732	723.5
206.614	741
204.495	762
202.375	763
200.256	772.5
198.135	757
196.014	778
193.893	805
191.771	833
189.648	840
187.525	841
185.401	847
183.277	844.5
181.152	866
179.027	875
176.901	878.5
174.775	902.5
172.648	944.5
170.521	949
168.393	939.5
166.265	970.5
164.136	989.5
162.007	997
159.876	1027.5
157.746	1055
155.615	1045
153.483	1063
151.351	1116
149.219	1129
147.086	1148.5
144.952	1157
142.818	1217.5
140.684	1228
138.548	1247
136.413	1295
134.276	1308.5
132.139	1368
130.002	1367.5
127.864	1438.5
125.725	1450.5
123.587	1502.5
121.447	1533
119.307	1564
117.166	1579
115.026	1651.5
112.885	1660.5
110.743	1701
108.6	1712.5
106.456	1745.5
104.313	1751
102.169	1681.5
100.023	1677.5
97.8789	1573.5
95.7328	1446.5
93.5869	1305.5
91.4392	1147
89.2919	982
87.1447	838
84.9959	707
