3528.51	448
3527.23	487
3525.95	477.5
3524.67	476
3523.39	506
3522.1	510
3520.82	525.5
3519.54	498
3518.26	484
3516.97	519.5
3515.69	513
3514.4	505.5
3513.12	514.5
3511.84	498
3510.55	534
3509.26	513
3507.98	538.5
3506.69	508
3505.41	525.5
3504.12	555.5
3502.83	546
3501.54	554
3500.26	538
3498.97	563
3497.68	591
3496.39	571
3495.1	566
3493.81	617
3492.52	616
3491.23	588.5
3489.94	621
3488.65	619.5
3487.36	644.5
3486.07	592
3484.78	647
3483.49	656
3482.19	669
3480.9	673.5
3479.61	622
3478.31	702
3477.02	698
3475.73	661.5
3474.43	698
3473.14	693.5
3471.84	763
3470.54	754.5
3469.25	736
3467.95	735
3466.66	737
3465.36	733
3464.06	754
3462.76	714
3461.46	761
3460.17	786
3458.87	735.5
3457.57	767
3456.27	768
3454.97	767
3453.67	809.5
3452.37	789
3451.07	799.5
3449.77	794
3448.47	807
3447.16	832.5
3445.86	830
3444.56	853.5
3443.26	874.5
3441.95	883
3440.65	887
3439.35	900
3438.04	913.5
3436.74	912
3435.43	897
3434.13	984
3432.82	980
3431.52	988
3430.21	1008
3428.9	1025.5
3427.6	1019
3426.29	1116.5
3424.98	1097.5
3423.67	1108
3422.36	1067
3421.06	1090
3419.75	1106
3418.44	1142.5
3417.13	1107.5
3415.82	1198
3414.51	1192.5
3413.2	1219
3411.88	1206
3410.57	1170
3409.26	1225
3407.95	1238.5
3406.64	1256.5
3405.32	1252.5
3404.01	1284
3402.7	1287
3401.38	1314
3400.07	1303.5
3398.75	1313
3397.44	1327.5
3396.12	1290
3394.81	1330.5
3393.49	1321
3392.18	1317.5
3390.86	1400
3389.54	1367
3388.23	1369
3386.91	1408
3385.59	1387
3384.27	1426
3382.95	1464
3381.63	1483.5
3380.31	1500.5
3378.99	1461
3377.67	1471.5
3376.35	1535
3375.03	1530.5
3373.71	1527.5
3372.39	1520
3371.07	1559.5
3369.75	1592.5
3368.42	1583.5
3367.1	1589.5
3365.78	1561
3364.45	1659
3363.13	1613.5
3361.81	1624.5
3360.48	1659
3359.16	1644.5
3357.83	1685.5
3356.51	1648.5
3355.18	1701
3353.85	1648
3352.53	1671.5
3351.2	1674
3349.87	1672
3348.54	1740
3347.22	1756
3345.89	1650
3344.56	1757
3343.23	1743.5
3341.9	1763
3340.57	1760
3339.24	1756
3337.91	1767
3336.58	1735.5
3335.25	1768.5
3333.92	1789
3332.58	1813.5
3331.25	1795
3329.92	1828
3328.59	1836
3327.25	1852.5
3325.92	1862.5
3324.58	1788
3323.25	1862
3321.92	1828.5
3320.58	1885
3319.25	1915.5
3317.91	1914
3316.57	1868
3315.24	1869
3313.9	1892
3312.56	1888
3311.23	1937
3309.89	1947
3308.55	1930
3307.21	1946
3305.87	1947.5
3304.53	1986
3303.19	1960
3301.85	1989.5
3300.51	2007.5
3299.17	2036.5
3297.83	2027.5
3296.49	1999.5
3295.15	2090.5
3293.81	2029.5
3292.46	2072
3291.12	2043.5
3289.78	2060.5
3288.43	2102.5
3287.09	2101
3285.75	2066
3284.4	2110
3283.06	2055
3281.71	2133
3280.37	2111
3279.02	2137
3277.67	2125
3276.33	2088
3274.98	2191
3273.63	2161
3272.28	2146
3270.94	2212
3269.59	2234.5
3268.24	2245
3266.89	2264.5
3265.54	2260
3264.19	2292
3262.84	2329
3261.49	2359
3260.14	2373
3258.79	2460.5
3257.44	2424.5
3256.08	2481
3254.73	2557.5
3253.38	2569
3252.03	2684.5
3250.67	2754.5
3249.32	2810
3247.96	2858.5
3246.61	2888
3245.26	2980
3243.9	3009
3242.54	3126
3241.19	3250
3239.83	3294
3238.48	3374.5
3237.12	3463.5
3235.76	3557.5
3234.41	3635
3233.05	3792
3231.69	3791
3230.33	3875
3228.97	3958
3227.61	4119.5
3226.25	4187.5
3224.89	4241
3223.53	4290.5
3222.17	4341.5
3220.81	4419
3219.45	4492
3218.09	4547
3216.72	4549
3215.36	4652
3214	4663.5
3212.63	4687.5
3211.27	4718
3209.91	4733
3208.54	4793
3207.18	4867.5
3205.81	4862
3204.45	4902
3203.08	4970.5
3201.71	4919.5
3200.35	5020
3198.98	5043
3197.61	5056.5
3196.25	5095
3194.88	5069
3193.51	5119
3192.14	5159.5
3190.77	5168
3189.4	5192.5
3188.03	5165.5
3186.66	5216
3185.29	5184
3183.92	5203.5
3182.55	5305.5
3181.18	5362
3179.81	5338.5
3178.44	5372.5
3177.06	5389.5
3175.69	5455.5
3174.32	5451
3172.94	5538
3171.57	5553
3170.2	5590
3168.82	5644.5
3167.45	5731
3166.07	5701
3164.69	5749
3163.32	5851.5
3161.94	5864.5
3160.56	5877
3159.19	5905.5
3157.81	5893
3156.43	6034
3155.05	6048.5
3153.67	6123
3152.3	6188.5
3150.92	6188
3149.54	6295
3148.16	6332
3146.78	6307.5
3145.4	6372
3144.01	6339.5
3142.63	6556.5
3141.25	6538.5
3139.87	6597
3138.49	6605.5
3137.1	6648
3135.72	6669
3134.34	6720.5
3132.95	6718
3131.57	6805
3130.18	6842
3128.8	6890
3127.41	6974.5
3126.03	7015
3124.64	7025
3123.25	7168
3121.87	7143.5
3120.48	7234.5
3119.09	7209
3117.7	7291.5
3116.32	7261
3114.93	7288
3113.54	7392.5
3112.15	7426
3110.76	7379.5
3109.37	7475.5
3107.98	7510
3106.59	7563
3105.2	7606
3103.8	7643
3102.41	7664.5
3101.02	7623.5
3099.63	7712.5
3098.23	7724.5
3096.84	7702
3095.45	7861.5
3094.05	7779
3092.66	7892.5
3091.26	7818.5
3089.87	7989.5
3088.47	7875
3087.08	7920
3085.68	8014
3084.28	8039
3082.89	8017
3081.49	8030.5
3080.09	7972
3078.69	8091
3077.3	8115
3075.9	8138
3074.5	8196.5
3073.1	8201
3071.7	8128
3070.3	8170.5
3068.9	8191.5
3067.5	8236
3066.09	8265.5
3064.69	8155.5
3063.29	8287.5
3061.89	8310.5
3060.48	8405.5
3059.08	8236
3057.68	8421.5
3056.27	8314.5
3054.87	8318.5
3053.46	8404
3052.06	8465
3050.65	8447.5
3049.25	8476.5
3047.84	8530
3046.44	8510.5
3045.03	8564.5
3043.62	8535.5
3042.21	8617
3040.81	8638
3039.4	8725
3037.99	8657.5
3036.58	8758
3035.17	8780
3033.76	8842
3032.35	8817.5
3030.94	8787
3029.53	8847
3028.12	8769
3026.71	8799
3025.29	8945
3023.88	8859
3022.47	8927.5
3021.06	8891.5
3019.64	8904
3018.23	8936.5
3016.82	8935
3015.4	8908
3013.99	9029
3012.57	8987.5
3011.15	9012.5
3009.74	8979.5
3008.32	9027.5
3006.91	9121.5
3005.49	8992
3004.07	9113
3002.65	9101.5
3001.24	9231.5
2999.82	9209
2998.4	9301
2996.98	9328.5
2995.56	9332
2994.14	9454
2992.72	9400
2991.3	9338.5
2989.88	9498.5
2988.46	9518
2987.03	9609
2985.61	9582.5
2984.19	9721
2982.77	9774.5
2981.34	9720.5
2979.92	9771.5
2978.49	9985.5
2977.07	9995
2975.65	10031
2974.22	10104.5
2972.79	10112.5
2971.37	10261
2969.94	10208.5
2968.52	10188
2967.09	10219.5
2965.66	10311
2964.23	10213
2962.81	10359
2961.38	10267.5
2959.95	10354.5
2958.52	10427.5
2957.09	10494
2955.66	10523.5
2954.23	10466
2952.8	10465
2951.37	10421.5
2949.94	10479
2948.5	10525.5
2947.07	10471
2945.64	10524.5
2944.21	10560.5
2942.77	10573
2941.34	10618.5
2939.91	10688
2938.47	10633
2937.04	10697.5
2935.6	10735.5
2934.17	10731.5
2932.73	10779
2931.29	10888.5
2929.86	10870.5
2928.42	10940.5
2926.98	10980.5
2925.55	11065.5
2924.11	10999
2922.67	11073.5
2921.23	11113
2919.79	11061
2918.35	11139
2916.91	11020.5
2915.47	11124.5
2914.03	11148.5
2912.59	11228
2911.15	11186
2909.71	11141
2908.26	11167.5
2906.82	11270
2905.38	11305
2903.94	11264.5
2902.49	11355.5
2901.05	11404.5
2899.6	11420
2898.16	11415
2896.71	11455.5
2895.27	11420
2893.82	11369
2892.38	11387.5
2890.93	11537
2889.48	11420.5
2888.03	11434
2886.59	11459.5
2885.14	11447.5
2883.69	11506.5
2882.24	11498.5
2880.79	11533.5
2879.34	11484.5
2877.89	11588.5
2876.44	11587
2874.99	11658
2873.54	11652
2872.09	11591
2870.64	11638.5
2869.18	11653.5
2867.73	11677.5
2866.28	11646.5
2864.83	11754
2863.37	11646
2861.92	11790
2860.46	11694
2859.01	11677
2857.55	11593.5
2856.1	11688.5
2854.64	11696
2853.19	11731
2851.73	11631.5
2850.27	11677
2848.81	11645
2847.36	11719
2845.9	11636
2844.44	11802
2842.98	11677.5
2841.52	11681.5
2840.06	11705.5
2838.6	11611.5
2837.14	11712.5
2835.68	11534.5
2834.22	11507
2832.76	11512.5
2831.3	11514.5
2829.83	11540.5
2828.37	11510
2826.91	11521
2825.44	11539.5
2823.98	11438.5
2822.52	11447.5
2821.05	11512.5
2819.59	11342
2818.12	11475.5
2816.66	11408
2815.19	11381.5
2813.72	11239
2812.26	11328
2810.79	11307.5
2809.32	11243.5
2807.85	11370.5
2806.38	11385
2804.92	11262
2803.45	11289
2801.98	11253.5
2800.51	11320
2799.04	11239
2797.57	11292.5
2796.1	11211.5
2794.62	11164.5
2793.15	11132
2791.68	11139.5
2790.21	11069.5
2788.73	11207
2787.26	11061.5
2785.79	11156
2784.31	11185.5
2782.84	11070.5
2781.36	11184.5
2779.89	11222
2778.41	11229
2776.94	11182.5
2775.46	11273.5
2773.99	11227.5
2772.51	11260.5
2771.03	11293.5
2769.55	11331.5
2768.07	11275
2766.6	11286
2765.12	11397
2763.64	11323.5
2762.16	11406.5
2760.68	11291.5
2759.2	11391
2757.72	11344
2756.24	11263
2754.75	11406
2753.27	11325.5
2751.79	11290.5
2750.31	11367
2748.82	11315
2747.34	11327.5
2745.86	11324.5
2744.37	11423
2742.89	11261.5
2741.4	11359.5
2739.92	11271
2738.43	11335
2736.94	11299
2735.46	11273.5
2733.97	11296.5
2732.48	11290.5
2731	11156.5
2729.51	11177.5
2728.02	11132.5
2726.53	11187.5
2725.04	11101.5
2723.55	11217.5
2722.06	11161
2720.57	11106.5
2719.08	11032.5
2717.59	11125
2716.1	11072
2714.61	11113
2713.11	11133.5
2711.62	11132.5
2710.13	11173
2708.64	11146
2707.14	11100
2705.65	11093.5
2704.15	11143.5
2702.66	11181.5
2701.16	11098.5
2699.67	11026.5
2698.17	11026
2696.67	11052
2695.18	11004
2693.68	11065
2692.18	11014
2690.69	10980
2689.19	10927.5
2687.69	10979
2686.19	11019
2684.69	10894
2683.19	10875.5
2681.69	10967.5
2680.19	10914.5
2678.69	10895.5
2677.19	10872
2675.68	10828.5
2674.18	10868.5
2672.68	10779.5
2671.18	10758.5
2669.67	10715.5
2668.17	10793
2666.66	10771
2665.16	10712.5
2663.66	10645.5
2662.15	10632.5
2660.64	10591
2659.14	10664
2657.63	10636
2656.13	10760.5
2654.62	10515
2653.11	10643
2651.6	10656.5
2650.09	10568.5
2648.58	10590.5
2647.08	10693.5
2645.57	10587
2644.06	10494.5
2642.55	10537
2641.04	10462
2639.52	10402.5
2638.01	10408
2636.5	10408
2634.99	10350.5
2633.48	10269.5
2631.96	10286
2630.45	10340.5
2628.94	10339.5
2627.42	10250.5
2625.91	10304.5
2624.39	10227.5
2622.88	10238.5
2621.36	10181
2619.85	10147
2618.33	10183
2616.81	10101.5
2615.3	10154.5
2613.78	10043
2612.26	10146.5
2610.74	10067
2609.22	10049.5
2607.7	10075
2606.18	9962
2604.66	9905
2603.14	9988
2601.62	9849
2600.1	9723.5
2598.58	9790
2597.06	9694
2595.54	9717
2594.01	9713.5
2592.49	9717
2590.97	9657
2589.44	9692
2587.92	9630.5
2586.39	9692.5
2584.87	9698.5
2583.34	9673.5
2581.82	9677.5
2580.29	9630
2578.76	9530
2577.24	9554.5
2575.71	9620.5
2574.18	9595.5
2572.65	9451
2571.13	9643.5
2569.6	9477
2568.07	9401
2566.54	9509.5
2565.01	9556
2563.48	9523
2561.95	9523.5
2560.42	9489.5
2558.88	9435
2557.35	9376
2555.82	9411.5
2554.29	9356.5
2552.75	9330.5
2551.22	9112.5
2549.69	9238
2548.15	9289
2546.62	9273.5
2545.08	9234.5
2543.55	9258
2542.01	9187.5
2540.47	9214.5
2538.94	9236.5
2537.4	9108
2535.86	9030.5
2534.33	9082
2532.79	9021
2531.25	9043
2529.71	9010
2528.17	8970
2526.63	8903.5
2525.09	8870
2523.55	8905.5
2522.01	8850
2520.47	8846.5
2518.92	8864.5
2517.38	8769
2515.84	8797.5
2514.3	8735.5
2512.75	8670
2511.21	8801.5
2509.67	8739
2508.12	8682
2506.58	8664
2505.03	8647.5
2503.49	8582.5
2501.94	8553
2500.39	8502.5
2498.85	8583
2497.3	8533.5
2495.75	8406
2494.2	8449
2492.65	8528.5
2491.11	8426
2489.56	8389.5
2488.01	8335.5
2486.46	8290.5
2484.91	8257
2483.36	8399
2481.8	8281
2480.25	8277
2478.7	8221
2477.15	8277
2475.6	8221.5
2474.04	7990
2472.49	8129.5
2470.93	8041.5
2469.38	7974.5
2467.83	7899
2466.27	7906
2464.71	7873.5
2463.16	7833.5
2461.6	7856.5
2460.05	7848
2458.49	7728
2456.93	7724
2455.37	7733.5
2453.81	7719
2452.26	7668.5
2450.7	7614.5
2449.14	7508.5
2447.58	7519.5
2446.02	7528
2444.46	7502
2442.9	7478
2441.33	7392.5
2439.77	7425
2438.21	7397.5
2436.65	7418
2435.08	7439.5
2433.52	7395.5
2431.96	7376.5
2430.39	7423
2428.83	7279.5
2427.26	7259.5
2425.7	7348.5
2424.13	7220.5
2422.56	7186.5
2421	7296.5
2419.43	7183
2417.86	7080.5
2416.3	7092
2414.73	7115.5
2413.16	7083
2411.59	7124.5
2410.02	7027.5
2408.45	7082.5
2406.88	7060.5
2405.31	7099
2403.74	7086.5
2402.17	7116.5
2400.6	7056.5
2399.02	7019
2397.45	6940.5
2395.88	6992.5
2394.3	6973
2392.73	6931
2391.16	6963.5
2389.58	6941
2388.01	6802
2386.43	6851
2384.86	6846.5
2383.28	6873
2381.7	6865.5
2380.13	6915.5
2378.55	6845.5
2376.97	6889.5
2375.39	6827
2373.81	6827.5
2372.23	6749
2370.65	6817.5
2369.07	6808
2367.49	6730
2365.91	6712.5
2364.33	6740.5
2362.75	6641
2361.17	6672
2359.59	6633
2358.01	6681.5
2356.42	6661
2354.84	6690
2353.25	6547
2351.67	6591.5
2350.09	6577.5
2348.5	6595
2346.92	6533.5
2345.33	6590
2343.74	6607.5
2342.16	6546
2340.57	6487.5
2338.98	6563
2337.39	6477.5
2335.81	6501.5
2334.22	6415.5
2332.63	6449
2331.04	6401
2329.45	6468.5
2327.86	6379
2326.27	6410.5
2324.68	6240.5
2323.09	6379.5
2321.49	6307
2319.9	6257
2318.31	6237.5
2316.72	6276.5
2315.12	6202.5
2313.53	6216
2311.93	6148
2310.34	6122.5
2308.74	6188.5
2307.15	6141.5
2305.55	6220.5
2303.96	6063.5
2302.36	6012
2300.76	5993
2299.17	5979.5
2297.57	6023.5
2295.97	5936.5
2294.37	5959
2292.77	5904
2291.17	5909.5
2289.57	5977
2287.97	5843.5
2286.37	5835.5
2284.77	5863.5
2283.17	5802
2281.57	5781.5
2279.96	5789.5
2278.36	5776.5
2276.76	5772.5
2275.15	5748
2273.55	5733.5
2271.95	5769.5
2270.34	5638
2268.74	5666
2267.13	5638
2265.52	5656.5
2263.92	5590
2262.31	5565
2260.7	5604.5
2259.1	5538.5
2257.49	5511.5
2255.88	5482
2254.27	5508
2252.66	5511.5
2251.05	5480
2249.44	5549.5
2247.83	5501.5
2246.22	5474
2244.61	5471
2243	5536.5
2241.39	5481
2239.77	5449.5
2238.16	5453
2236.55	5341
2234.93	5328
2233.32	5294.5
2231.7	5297.5
2230.09	5256.5
2228.47	5226
2226.86	5233
2225.24	5198
2223.63	5238.5
2222.01	5201.5
2220.39	5205.5
2218.77	5161.5
2217.16	5125
2215.54	5140
2213.92	5122.5
2212.3	5094
2210.68	5106
2209.06	5065.5
2207.44	5041
2205.82	5016
2204.19	4943.5
2202.57	4953.5
2200.95	4914
2199.33	5029.5
2197.7	4979.5
2196.08	4938.5
2194.46	4910.5
2192.83	4947.5
2191.21	4887.5
2189.58	4884.5
2187.96	4883.5
2186.33	4823.5
2184.7	4837.5
2183.08	4840
2181.45	4717.5
2179.82	4744.5
2178.19	4822
2176.57	4721
2174.94	4726
2173.31	4623
2171.68	4635
2170.05	4629
2168.42	4618
2166.79	4668.5
2165.16	4617
2163.52	4581
2161.89	4539
2160.26	4572.5
2158.63	4564
2156.99	4477
2155.36	4526
2153.73	4484
2152.09	4483
2150.46	4482
2148.82	4388
2147.18	4454.5
2145.55	4422
2143.91	4348
2142.27	4342
2140.64	4293.5
2139	4367.5
2137.36	4423
2135.72	4276
2134.08	4251
2132.44	4289
2130.8	4171.5
2129.16	4182
2127.52	4167
2125.88	4102.5
2124.24	4125.5
2122.6	4123
2120.95	4118
2119.31	4071.5
2117.67	4028
2116.02	4044
2114.38	4040
2112.74	3970
2111.09	3984.5
2109.45	3980
2107.8	3956
2106.15	3958.5
2104.51	3935.5
2102.86	3908.5
2101.21	3935
2099.56	3862.5
2097.92	3883.5
2096.27	3856
2094.62	3824.5
2092.97	3861
2091.32	3790
2089.67	3830
2088.02	3829.5
2086.37	3822
2084.72	3808.5
2083.06	3783
2081.41	3827
2079.76	3700
2078.1	3722.5
2076.45	3782
2074.8	3778.5
2073.14	3776
2071.49	3792
2069.83	3765
2068.18	3755.5
2066.52	3756.5
2064.86	3656.5
2063.21	3650
2061.55	3701
2059.89	3677
2058.23	3718
2056.57	3665.5
2054.92	3674
2053.26	3595.5
2051.6	3631.5
2049.94	3600
2048.27	3579.5
2046.61	3535.5
2044.95	3631
2043.29	3532.5
2041.63	3578.5
2039.97	3463
2038.3	3494.5
2036.64	3439.5
2034.97	3426
2033.31	3438.5
2031.64	3478.5
2029.98	3437.5
2028.31	3374.5
2026.65	3376.5
2024.98	3319.5
2023.31	3395.5
2021.65	3294
2019.98	3304.5
2018.31	3303
2016.64	3303.5
2014.97	3264
2013.3	3204
2011.63	3274
2009.96	3234
2008.29	3179
2006.62	3170
2004.95	3151
2003.28	3146
2001.6	3208
1999.93	3191
1998.26	3155
1996.58	3179
1994.91	3103
1993.24	3114.5
1991.56	3108
1989.89	3122
1988.21	3083
1986.53	3072
1984.86	3043.5
1983.18	3062
1981.5	3070.5
1979.82	3034.5
1978.15	3006.5
1976.47	3025
1974.79	2995.5
1973.11	2984
1971.43	2949
1969.75	2970
1968.07	2929
1966.38	2895
1964.7	2920
1963.02	2926
1961.34	2897
1959.66	2883
1957.97	2850
1956.29	2841.5
1954.6	2841
1952.92	2869
1951.23	2824.5
1949.55	2780
1947.86	2831.5
1946.18	2777
1944.49	2795.5
1942.8	2786
1941.11	2749.5
1939.43	2681.5
1937.74	2756
1936.05	2714.5
1934.36	2690
1932.67	2688.5
1930.98	2679
1929.29	2710
1927.6	2633
1925.91	2625
1924.21	2636
1922.52	2539
1920.83	2626
1919.14	2601.5
1917.44	2616
1915.75	2585
1914.05	2542
1912.36	2576
1910.66	2512.5
1908.97	2545.5
1907.27	2560.5
1905.58	2494.5
1903.88	2430.5
1902.18	2513
1900.48	2486
1898.79	2460
1897.09	2483.5
1895.39	2449.5
1893.69	2435.5
1891.99	2376
1890.29	2424.5
1888.59	2388
1886.89	2368
1885.18	2329
1883.48	2321
1881.78	2301.5
1880.08	2268
1878.37	2231
1876.67	2262.5
1874.96	2243.5
1873.26	2261.5
1871.55	2280.5
1869.85	2243.5
1868.14	2223
1866.44	2274
1864.73	2244.5
1863.02	2214.5
1861.32	2163.5
1859.61	2181.5
1857.9	2181.5
1856.19	2158.5
1854.48	2151
1852.77	2134
1851.06	2119.5
1849.35	2158
1847.64	2093.5
1845.93	2111
1844.21	2087.5
1842.5	2108
1840.79	2038
1839.08	2078
1837.36	2074
1835.65	2076.5
1833.93	2046
1832.22	2044.5
1830.5	2047.5
1828.79	2039.5
1827.07	1996
1825.36	2000.5
1823.64	1984.5
1821.92	1965
1820.2	1992
1818.48	1970
1816.77	1940
1815.05	1974.5
1813.33	1918
1811.61	1948.5
1809.89	1920.5
1808.16	1948.5
1806.44	1902.5
1804.72	1941.5
1803	1873
1801.28	1841.5
1799.55	1880
1797.83	1868.5
1796.11	1856
1794.38	1850.5
1792.66	1804
1790.93	1833.5
1789.21	1799.5
1787.48	1848
1785.75	1810
1784.03	1773
1782.3	1791.5
1780.57	1775.5
1778.84	1798
1777.11	1771.5
1775.38	1712
1773.66	1779.5
1771.93	1769.5
1770.19	1741.5
1768.46	1728
1766.73	1750
1765	1765.5
1763.27	1708
1761.54	1751.5
1759.8	1774
1758.07	1740.5
1756.34	1748.5
1754.6	1757.5
1752.87	1770.5
1751.13	1755.5
1749.4	1784
1747.66	1752.5
1745.92	1765.5
1744.19	1736.5
1742.45	1755
1740.71	1715
1738.97	1725
1737.23	1711.5
1735.49	1674
1733.75	1635.5
1732.01	1681.5
1730.27	1616
1728.53	1647
1726.79	1605
1725.05	1634
1723.31	1614.5
1721.57	1607
1719.82	1641.5
1718.08	1545
1716.34	1575
1714.59	1566
1712.85	1525.5
1711.1	1543.5
1709.36	1544
1707.61	1486.5
1705.86	1504.5
1704.12	1514
1702.37	1493.5
1700.62	1440.5
1698.87	1450
1697.12	1433.5
1695.37	1485
1693.62	1441
1691.87	1374
1690.12	1462.5
1688.37	1439.5
1686.62	1458.5
1684.87	1387
1683.12	1380
1681.36	1420.5
1679.61	1365.5
1677.86	1390
1676.1	1417.5
1674.35	1412.5
1672.59	1409.5
1670.84	1444
1669.08	1469
1667.33	1446
1665.57	1532
1663.81	1545
1662.06	1563
1660.3	1618
1658.54	1635
1656.78	1670
1655.02	1621
1653.26	1645.5
1651.5	1532
1649.74	1515.5
1647.98	1462.5
1646.22	1432
1644.46	1427.5
1642.7	1410
1640.93	1374
1639.17	1338
1637.41	1306
1635.64	1311
1633.88	1307.5
1632.11	1287.5
1630.35	1311.5
1628.58	1298
1626.81	1258
1625.05	1262.5
1623.28	1243
1621.51	1208
1619.75	1200
1617.98	1229
1616.21	1227
1614.44	1173.5
1612.67	1190
1610.9	1174.5
1609.13	1203
1607.36	1186
1605.58	1203
1603.81	1170.5
1602.04	1203
1600.27	1182
1598.49	1133
1596.72	1199
1594.95	1157.5
1593.17	1188.5
1591.4	1145
1589.62	1158
1587.84	1142
1586.07	1139.5
1584.29	1169.5
1582.51	1142
1580.74	1136
1578.96	1144
1577.18	1143
1575.4	1102.5
1573.62	1133
1571.84	1124.5
1570.06	1116.5
1568.28	1082
1566.5	1090.5
1564.72	1067.5
1562.93	1065
1561.15	1101.5
1559.37	1075
1557.58	1065
1555.8	1071
1554.02	1047.5
1552.23	1069.5
1550.45	1060.5
1548.66	1018
1546.87	1023
1545.09	1024.5
1543.3	1030.5
1541.51	1040.5
1539.72	1037.5
1537.94	987
1536.15	1007
1534.36	1013
1532.57	971.5
1530.78	999
1528.99	1007
1527.2	948
1525.4	995
1523.61	948
1521.82	986
1520.03	949
1518.23	987
1516.44	958.5
1514.65	960
1512.85	995.5
1511.06	988.5
1509.26	998
1507.46	966.5
1505.67	941
1503.87	945.5
1502.07	969.5
1500.28	981
1498.48	986.5
1496.68	986.5
1494.88	972.5
1493.08	979.5
1491.28	989
1489.48	990
1487.68	989.5
1485.88	994
1484.08	1013
1482.27	1019
1480.47	1031
1478.67	1071
1476.86	1096.5
1475.06	1098
1473.25	1142.5
1471.45	1180
1469.64	1224
1467.84	1257.5
1466.03	1288.5
1464.23	1354
1462.42	1428
1460.61	1499
1458.8	1468
1456.99	1528.5
1455.18	1555.5
1453.37	1601
1451.56	1576
1449.75	1608
1447.94	1695
1446.13	1672
1444.32	1791.5
1442.51	1770.5
1440.7	1799
1438.88	1740
1437.07	1681.5
1435.26	1565
1433.44	1449
1431.63	1355.5
1429.81	1256.5
1427.99	1119.5
1426.18	1137.5
1424.36	1058
1422.54	1038
1420.73	995.5
1418.91	1006
1417.09	937.5
1415.27	969
1413.45	915
1411.63	911.5
1409.81	864
1407.99	867
1406.17	834
1404.35	834.5
1402.53	820.5
1400.7	802
1398.88	803
1397.06	816
1395.23	800
1393.41	802.5
1391.58	761
1389.76	775
1387.93	792
1386.11	765
1384.28	811
1382.45	789.5
1380.62	773
1378.8	819.5
1376.97	763.5
1375.14	800.5
1373.31	804
1371.48	796
1369.65	821.5
1367.82	782.5
1365.99	767
1364.16	783.5
1362.32	791.5
1360.49	798.5
1358.66	773
1356.82	781.5
1354.99	779.5
1353.16	782.5
1351.32	763
1349.48	784.5
1347.65	765.5
1345.81	777
1343.98	750.5
1342.14	770.5
1340.3	780
1338.46	783.5
1336.62	773
1334.79	775
1332.95	776
1331.11	808
1329.27	836
1327.42	835
1325.58	857.5
1323.74	912
1321.9	856.5
1320.06	970.5
1318.21	981
1316.37	991
1314.53	1080.5
1312.68	1092
1310.84	1142
1308.99	1159
1307.15	1239
1305.3	1273
1303.45	1267
1301.61	1323
1299.76	1302
1297.91	1272
1296.06	1161
1294.21	1096
1292.36	1056
1290.51	1003
1288.66	988
1286.81	911
1284.96	917.5
1283.11	931
1281.26	923.5
1279.4	887
1277.55	923
1275.7	882.5
1273.84	909
1271.99	889
1270.13	898.5
1268.28	895.5
1266.42	912
1264.56	881.5
1262.71	872
1260.85	871
1258.99	850
1257.13	832
1255.27	787.5
1253.41	799
1251.56	736
1249.7	779
1247.83	752.5
1245.97	718
1244.11	685.5
1242.25	675
1240.39	698.5
1238.52	694
1236.66	654.5
1234.8	662.5
1232.93	603
1231.07	636
1229.2	625
1227.34	634
1225.47	625
1223.6	588
1221.74	593
1219.87	601
1218	618.5
1216.13	567
1214.26	583.5
1212.39	610
1210.53	520
1208.65	553
1206.78	581
1204.91	550
1203.04	552.5
1201.17	561.5
1199.3	561
1197.42	546
1195.55	590.5
1193.68	579
1191.8	519
1189.93	535
1188.05	549
1186.17	547
1184.3	577
1182.42	544
1180.54	525
1178.67	563.5
1176.79	540
1174.91	530
1173.03	564
1171.15	533
1169.27	539.5
1167.39	542
1165.51	567.5
1163.63	547.5
1161.75	559.5
1159.86	551
1157.98	523
1156.1	565
1154.21	553
1152.33	538.5
1150.44	561
1148.56	541.5
1146.67	549
1144.79	548
1142.9	528
1141.01	544.5
1139.12	582
1137.24	579
1135.35	594
1133.46	620.5
1131.57	629.5
1129.68	661.5
1127.79	677
1125.9	689
1124.01	690
1122.12	689
1120.22	690
1118.33	636
1116.44	657.5
1114.54	645
1112.65	638
1110.75	648.5
1108.86	657
1106.96	671.5
1105.07	693.5
1103.17	683
1101.27	720
1099.38	737
1097.48	750
1095.58	794.5
1093.68	839
1091.78	833
1089.88	878.5
1087.98	858.5
1086.08	867
1084.18	902.5
1082.28	951
1080.38	897
1078.47	896.5
1076.57	890.5
1074.67	861
1072.76	835
1070.86	858
1068.95	822
1067.05	903
1065.14	894
1063.24	867
1061.33	817
1059.42	825
1057.51	734
1055.6	713
1053.7	679
1051.79	658
1049.88	670.5
1047.97	684
1046.06	681
1044.14	647
1042.23	611
1040.32	649.5
1038.41	640
1036.5	639.5
1034.58	627
1032.67	628
1030.75	663.5
1028.84	624
1026.92	636.5
1025.01	628
1023.09	609
1021.17	621
1019.26	646
1017.34	617.5
1015.42	615
1013.5	624
1011.58	582
1009.66	595
1007.74	607
1005.82	619
1003.9	598
1001.98	588
1000.06	615
998.134	578.5
996.212	593
994.288	605.5
992.364	629
990.44	627.5
988.515	683
986.589	666.5
984.663	691
982.737	703
980.81	713
978.883	735.5
976.955	770
975.027	791
973.098	747
971.169	794
969.239	752
967.308	765
965.378	798.5
963.447	791
961.516	771
959.583	777
957.65	798
955.718	775
953.784	783
951.85	790
949.916	793
947.981	807
946.045	810
944.109	834
942.173	875.5
940.236	850
938.298	862
936.36	868.5
934.422	811
932.484	770
930.544	757
928.604	728
926.664	707.5
924.724	693
922.782	673
920.84	633
918.898	657
916.955	651.5
915.012	656
913.068	668
911.124	650
909.18	620
907.235	677
905.289	659
903.343	656
901.397	687
899.45	664
897.502	692
895.554	746.5
893.605	747
891.657	733
889.707	762
887.758	771
885.807	731
883.856	775
881.905	748.5
879.953	778
878.001	730
876.048	747
874.094	773
872.14	766
870.186	764.5
868.232	781
866.276	794
864.321	765.5
862.365	709.5
860.408	743
858.451	725.5
856.493	713.5
854.535	709
852.576	747
850.617	687.5
848.658	702
846.698	706.5
844.737	698
842.776	714.5
840.814	692.5
838.852	700.5
836.89	646
834.927	607
832.963	632
830.999	607
829.035	608
827.07	592.5
825.105	578.5
823.139	554.5
821.172	560.5
819.206	531.5
817.238	556.5
815.27	539.5
813.301	502
811.333	492.5
809.363	470.5
807.394	474.5
805.424	443
803.453	467
801.482	424
799.509	411
797.538	415
795.565	423
793.592	393
791.618	436
789.643	434
787.669	381
785.693	421
783.718	402.5
781.742	402
779.765	406.5
777.788	397.5
775.811	371
773.832	391
771.853	383
769.875	391.5
767.895	399
765.915	381.5
763.934	374.5
761.953	403
759.972	365
757.99	373
756.007	370
754.024	361.5
752.041	365
750.056	355
748.072	403
746.087	395
744.102	409
742.116	398.5
740.13	408
738.143	393
736.155	391
734.167	378
732.179	383
730.19	390.5
728.2	403.5
726.21	414
724.22	374
722.229	374
720.237	394
718.246	407.5
716.253	367
714.26	394
712.267	365
710.273	352.5
708.279	333.5
706.284	343
704.289	311
702.293	350
700.296	344
698.3	344
696.303	345.5
694.305	326
692.307	348
690.307	321
688.308	348
686.309	334.5
684.308	329
682.308	346
680.306	341.5
678.304	347
676.302	350
674.3	351
672.296	357
670.293	348.5
668.289	363.5
666.284	361
664.278	390
662.273	351
660.266	371
658.26	386
656.252	352
654.244	361
652.237	365.5
650.227	362
648.218	392
646.209	380.5
644.198	371
642.188	380.5
640.177	362.5
638.165	352
636.153	371.5
634.14	388
632.128	352
630.113	386
628.099	369
626.085	385.5
624.07	407
622.054	394
620.038	418.5
618.021	397.5
616.004	419.5
613.986	399.5
611.968	423
609.949	401.5
607.93	391
605.911	427
603.891	431
601.87	366
599.848	378
597.827	377
595.805	416
593.782	400
591.759	389
589.735	393
587.711	401
585.687	370
583.661	401.5
581.636	357
579.609	355
577.583	361
575.555	380
573.527	363
571.5	355.5
569.471	407
567.441	358.5
565.412	413
563.382	393
561.351	414
559.32	388
557.289	432
555.257	395
553.223	440
551.19	454
549.157	478
547.122	529.5
545.088	536
543.053	565.5
541.017	571
538.981	665.5
536.943	756
534.907	965.5
532.869	1223.5
530.831	1756
528.792	2612
526.752	3940
524.713	6076
522.673	7739
520.632	7820.5
518.591	6398
516.549	4654
514.507	3168.5
512.464	2079
510.42	1406
508.377	1019.5
506.332	814
504.288	700.5
502.242	634.5
500.196	613.5
498.15	570
496.104	537
494.056	514
492.008	528.5
489.96	504.5
487.911	498
485.862	484
483.812	496
481.761	477
479.71	500
477.659	461.5
475.607	458
473.555	471.5
471.502	489
469.448	457
467.395	436.5
465.34	447
463.285	480
461.23	465
459.174	486.5
457.118	447
455.061	486
453.003	425
450.945	470
448.887	486.5
446.828	459
444.768	467
442.708	498.5
440.647	514.5
438.587	511
436.525	539
434.463	504
432.4	539
430.337	512
428.274	529.5
426.21	541
424.145	534
422.079	529.5
420.014	505
417.948	505
415.882	525.5
413.814	500
411.746	519
409.679	515.5
407.609	515
405.54	568
403.47	541
401.401	519
399.329	550
397.258	526
395.187	560
393.114	574
391.041	558.5
388.968	553.5
386.895	549
384.82	549
382.745	580.5
380.67	552
378.594	586.5
376.517	540
374.44	584
372.363	585
370.286	546
368.207	577
366.128	574
364.049	599
361.969	603
359.888	601
357.807	623
355.725	626
353.643	621
351.561	607.5
349.477	630
347.394	603.5
345.31	626.5
343.226	681
341.141	634.5
339.055	657.5
336.968	664
334.882	660.5
332.795	693
330.707	654.5
328.618	699.5
326.53	713
324.44	710
322.351	721
320.26	711
318.17	802
316.078	796
313.987	858.5
311.895	847
309.802	873
307.708	938
305.614	939
303.52	937
301.425	952.5
299.329	913
297.233	917.5
295.137	838
293.039	865
290.942	837
288.844	835
286.745	831.5
284.647	815.5
282.546	831
280.446	832
278.346	824.5
276.245	853.5
274.143	812
272.041	844
269.939	834.5
267.835	800
265.731	851
263.627	852
261.522	839
259.417	869
257.311	880
255.204	915.5
253.098	884
250.99	923.5
248.882	884
246.774	950
244.664	928
242.555	977.5
240.445	967
238.334	960
236.223	969
234.112	975
232	1002
229.888	1030.5
227.775	1024
225.661	1034.5
223.546	1008.5
221.431	996
219.316	1058
217.201	1048
215.084	1028
212.967	1067.5
210.85	1008
208.732	1050.5
206.614	1059
204.495	1042
202.375	1044
200.256	994
198.135	1070.5
196.014	1054.5
193.893	1074.5
191.771	1024
189.648	1013
187.525	1029
185.401	1062
183.277	1099.5
181.152	1041.5
179.027	1073
176.901	1015
174.775	1084
172.648	1126.5
170.521	1093.5
168.393	1137
166.265	1119.5
164.136	1127
162.007	1144
159.876	1198.5
157.746	1210.5
155.615	1167
153.483	1269.5
151.351	1264
149.219	1304
147.086	1328
144.952	1394.5
142.818	1388.5
140.684	1453.5
138.548	1461
136.413	1519.5
134.276	1581
132.139	1561
130.002	1672
127.864	1709.5
125.725	1738
123.587	1850
121.447	1871
119.307	1958
117.166	1989
115.026	2071
112.885	2149
110.743	2140
108.6	2352
106.456	2413.5
104.313	2401.5
102.169	2361
100.023	2290
97.8789	2204.5
95.7328	2015.5
93.5869	1771
91.4392	1524
89.2919	1277
87.1447	981
84.9959	751
