3528.51	503
3527.23	558
3525.95	578.5
3524.67	592.5
3523.39	581.5
3522.1	617
3520.82	566
3519.54	582.5
3518.26	649
3516.97	596
3515.69	579
3514.4	585
3513.12	597.5
3511.84	641
3510.55	632.5
3509.26	602
3507.98	607
3506.69	640
3505.41	629
3504.12	607
3502.83	650.5
3501.54	655.5
3500.26	610
3498.97	657.5
3497.68	688.5
3496.39	680
3495.1	658
3493.81	721
3492.52	681
3491.23	716
3489.94	730.5
3488.65	709.5
3487.36	741
3486.07	767
3484.78	764
3483.49	781.5
3482.19	808.5
3480.9	777.5
3479.61	812
3478.31	840
3477.02	813
3475.73	840
3474.43	824
3473.14	834.5
3471.84	866
3470.54	878
3469.25	844
3467.95	878.5
3466.66	841
3465.36	866
3464.06	871
3462.76	898
3461.46	875.5
3460.17	876
3458.87	933
3457.57	887
3456.27	879.5
3454.97	916.5
3453.67	947.5
3452.37	916
3451.07	940
3449.77	932
3448.47	971
3447.16	961.5
3445.86	1002
3444.56	996
3443.26	1036
3441.95	1053
3440.65	1038.5
3439.35	1069
3438.04	1101
3436.74	1089
3435.43	1113
3434.13	1135
3432.82	1155
3431.52	1186
3430.21	1190
3428.9	1229.5
3427.6	1215
3426.29	1242
3424.98	1295.5
3423.67	1297.5
3422.36	1267
3421.06	1302
3419.75	1306.5
3418.44	1341.5
3417.13	1360
3415.82	1388
3414.51	1397
3413.2	1435
3411.88	1427
3410.57	1430
3409.26	1420
3407.95	1442
3406.64	1462
3405.32	1529
3404.01	1509.5
3402.7	1506
3401.38	1510.5
3400.07	1519.5
3398.75	1526
3397.44	1521
3396.12	1584
3394.81	1541.5
3393.49	1591
3392.18	1608.5
3390.86	1566
3389.54	1629
3388.23	1654
3386.91	1663
3385.59	1703.5
3384.27	1677
3382.95	1687
3381.63	1700
3380.31	1697
3378.99	1781.5
3377.67	1771.5
3376.35	1779
3375.03	1797
3373.71	1820
3372.39	1833.5
3371.07	1808
3369.75	1867.5
3368.42	1857.5
3367.1	1901.5
3365.78	1883.5
3364.45	1920
3363.13	1932
3361.81	1917
3360.48	1962
3359.16	1952.5
3357.83	1941
3356.51	1946
3355.18	1974.5
3353.85	1997
3352.53	2011.5
3351.2	1999
3349.87	2028.5
3348.54	2044
3347.22	1980
3345.89	2041
3344.56	2056
3343.23	2092.5
3341.9	2069
3340.57	2046
3339.24	2100.5
3337.91	2065.5
3336.58	2103
3335.25	2057
3333.92	2120.5
3332.58	2105.5
3331.25	2138.5
3329.92	2133
3328.59	2179
3327.25	2143.5
3325.92	2146
3324.58	2117
3323.25	2215
3321.92	2198.5
3320.58	2207.5
3319.25	2214.5
3317.91	2241
3316.57	2214
3315.24	2261
3313.9	2264
3312.56	2264
3311.23	2272
3309.89	2260
3308.55	2279
3307.21	2299
3305.87	2338
3304.53	2320
3303.19	2320.5
3301.85	2349
3300.51	2355
3299.17	2379
3297.83	2399
3296.49	2372
3295.15	2424
3293.81	2362
3292.46	2402
3291.12	2415
3289.78	2427
3288.43	2411.5
3287.09	2405.5
3285.75	2404
3284.4	2444
3283.06	2544
3281.71	2477
3280.37	2504
3279.02	2525.5
3277.67	2506
3276.33	2501.5
3274.98	2544
3273.63	2556
3272.28	2582
3270.94	2553
3269.59	2596
3268.24	2644
3266.89	2626.5
3265.54	2713
3264.19	2697
3262.84	2734
3261.49	2746.5
3260.14	2799
3258.79	2837
3257.44	2849
3256.08	2931
3254.73	2966
3253.38	2994
3252.03	3076
3250.67	3210
3249.32	3243
3247.96	3343.5
3246.61	3389.5
3245.26	3534.5
3243.9	3633
3242.54	3694.5
3241.19	3794
3239.83	3837
3238.48	4011.5
3237.12	4074.5
3235.76	4173.5
3234.41	4324.5
3233.05	4340
3231.69	4546
3230.33	4662
3228.97	4694.5
3227.61	4796
3226.25	4858.5
3224.89	5005
3223.53	5084.5
3222.17	5192.5
3220.81	5215
3219.45	5348.5
3218.09	5358.5
3216.72	5373
3215.36	5436
3214	5466
3212.63	5582
3211.27	5619
3209.91	5596
3208.54	5639
3207.18	5679.5
3205.81	5794.5
3204.45	5771
3203.08	5761
3201.71	5852.5
3200.35	5820.5
3198.98	5867.5
3197.61	5930
3196.25	5913
3194.88	6040.5
3193.51	5956.5
3192.14	6063
3190.77	6119
3189.4	6021
3188.03	6097
3186.66	6127.5
3185.29	6120.5
3183.92	6169
3182.55	6202.5
3181.18	6280
3179.81	6276.5
3178.44	6297
3177.06	6362
3175.69	6480.5
3174.32	6392
3172.94	6552
3171.57	6537.5
3170.2	6557.5
3168.82	6659
3167.45	6674
3166.07	6762
3164.69	6843
3163.32	6825.5
3161.94	6912.5
3160.56	7046.5
3159.19	7035.5
3157.81	7142
3156.43	7157.5
3155.05	7213.5
3153.67	7230
3152.3	7253
3150.92	7407
3149.54	7468.5
3148.16	7440.5
3146.78	7523.5
3145.4	7568
3144.01	7631
3142.63	7617
3141.25	7713
3139.87	7761.5
3138.49	7799.5
3137.1	7875
3135.72	7845.5
3134.34	7942
3132.95	7906
3131.57	8094.5
3130.18	8094.5
3128.8	8129
3127.41	8226.5
3126.03	8270
3124.64	8281
3123.25	8358
3121.87	8393
3120.48	8494
3119.09	8526.5
3117.7	8517.5
3116.32	8494.5
3114.93	8578.5
3113.54	8637
3112.15	8634.5
3110.76	8806
3109.37	8781.5
3107.98	8902
3106.59	8905
3105.2	8788
3103.8	8851
3102.41	9051
3101.02	9026
3099.63	9106.5
3098.23	9021
3096.84	9124
3095.45	9183.5
3094.05	9226
3092.66	9250.5
3091.26	9285.5
3089.87	9253
3088.47	9214.5
3087.08	9391
3085.68	9391
3084.28	9388
3082.89	9474
3081.49	9464
3080.09	9476
3078.69	9572
3077.3	9534.5
3075.9	9479.5
3074.5	9579.5
3073.1	9575
3071.7	9562.5
3070.3	9548
3068.9	9641.5
3067.5	9731
3066.09	9652
3064.69	9658
3063.29	9678
3061.89	9750.5
3060.48	9788
3059.08	9828
3057.68	9841
3056.27	9859.5
3054.87	9937.5
3053.46	9842.5
3052.06	9883
3050.65	9973
3049.25	9926
3047.84	9970
3046.44	10034.5
3045.03	10013.5
3043.62	10142.5
3042.21	10127.5
3040.81	10247
3039.4	10180.5
3037.99	10242.5
3036.58	10350
3035.17	10318
3033.76	10282.5
3032.35	10338.5
3030.94	10341.5
3029.53	10302
3028.12	10312.5
3026.71	10448.5
3025.29	10278
3023.88	10497
3022.47	10424.5
3021.06	10459
3019.64	10417.5
3018.23	10490.5
3016.82	10505
3015.4	10478
3013.99	10551.5
3012.57	10480.5
3011.15	10535
3009.74	10566.5
3008.32	10688
3006.91	10620
3005.49	10677
3004.07	10778.5
3002.65	10703
3001.24	10721
2999.82	10817.5
2998.4	10945.5
2996.98	10916
2995.56	10949
2994.14	10955
2992.72	11006.5
2991.3	11039
2989.88	11087
2988.46	11125.5
2987.03	11277
2985.61	11374.5
2984.19	11405
2982.77	11395
2981.34	11516.5
2979.92	11576.5
2978.49	11539
2977.07	11678.5
2975.65	11831
2974.22	11789.5
2972.79	11794.5
2971.37	11893
2969.94	11979.5
2968.52	11889
2967.09	11975.5
2965.66	12049
2964.23	11984.5
2962.81	12050
2961.38	12008.5
2959.95	12116
2958.52	12125.5
2957.09	12209
2955.66	12186
2954.23	12212.5
2952.8	12137.5
2951.37	12242
2949.94	12183
2948.5	12216.5
2947.07	12272
2945.64	12275
2944.21	12255
2942.77	12344.5
2941.34	12456
2939.91	12394
2938.47	12355
2937.04	12577.5
2935.6	12590.5
2934.17	12497
2932.73	12588
2931.29	12647.5
2929.86	12641
2928.42	12801.5
2926.98	12819.5
2925.55	12851.5
2924.11	12812
2922.67	12946
2921.23	12808.5
2919.79	13000
2918.35	12914.5
2916.91	12953
2915.47	13026
2914.03	13002
2912.59	12956
2911.15	12976.5
2909.71	13013
2908.26	12947.5
2906.82	13160.5
2905.38	13161.5
2903.94	13147.5
2902.49	13268
2901.05	13118
2899.6	13217
2898.16	13156
2896.71	13173
2895.27	13294
2893.82	13289.5
2892.38	13202.5
2890.93	13350
2889.48	13318
2888.03	13326
2886.59	13193.5
2885.14	13219.5
2883.69	13438
2882.24	13272.5
2880.79	13334
2879.34	13403.5
2877.89	13589
2876.44	13435.5
2874.99	13549
2873.54	13687.5
2872.09	13515
2870.64	13511.5
2869.18	13575.5
2867.73	13586
2866.28	13600
2864.83	13491
2863.37	13453
2861.92	13570.5
2860.46	13572.5
2859.01	13452.5
2857.55	13520.5
2856.1	13586.5
2854.64	13523
2853.19	13456.5
2851.73	13444
2850.27	13506
2848.81	13516.5
2847.36	13605.5
2845.9	13580.5
2844.44	13496.5
2842.98	13597.5
2841.52	13511.5
2840.06	13499.5
2838.6	13563.5
2837.14	13469
2835.68	13428.5
2834.22	13431.5
2832.76	13365.5
2831.3	13371.5
2829.83	13386.5
2828.37	13425.5
2826.91	13445.5
2825.44	13256
2823.98	13425
2822.52	13421.5
2821.05	13310
2819.59	13400.5
2818.12	13351
2816.66	13311
2815.19	13333.5
2813.72	13235.5
2812.26	13281
2810.79	13237
2809.32	13126
2807.85	13256
2806.38	13113
2804.92	13215.5
2803.45	13218
2801.98	13111
2800.51	13111.5
2799.04	13154
2797.57	12995
2796.1	13086
2794.62	12962
2793.15	13030.5
2791.68	13061.5
2790.21	12930
2788.73	12946
2787.26	12916.5
2785.79	13101.5
2784.31	13055
2782.84	13034
2781.36	13109.5
2779.89	13112
2778.41	13043.5
2776.94	13020.5
2775.46	13157
2773.99	13140
2772.51	13114.5
2771.03	13092
2769.55	13202
2768.07	13289
2766.6	13338
2765.12	13338
2763.64	13336.5
2762.16	13372
2760.68	13281.5
2759.2	13401.5
2757.72	13288
2756.24	13336.5
2754.75	13342
2753.27	13301.5
2751.79	13391
2750.31	13331.5
2748.82	13247
2747.34	13227
2745.86	13198.5
2744.37	13263
2742.89	13301
2741.4	13244
2739.92	13341
2738.43	13239
2736.94	13278
2735.46	13150.5
2733.97	13108
2732.48	13242
2731	13128.5
2729.51	13232
2728.02	13140.5
2726.53	13172
2725.04	13096
2723.55	13067
2722.06	12933.5
2720.57	13103.5
2719.08	13101
2717.59	13095.5
2716.1	13097.5
2714.61	13008
2713.11	13048
2711.62	13169
2710.13	13186
2708.64	13070
2707.14	13138
2705.65	13162
2704.15	13057.5
2702.66	13026.5
2701.16	13135
2699.67	13108
2698.17	13057
2696.67	13120
2695.18	13087.5
2693.68	13087.5
2692.18	12898
2690.69	13013.5
2689.19	13030.5
2687.69	13022.5
2686.19	12857.5
2684.69	12916
2683.19	12857.5
2681.69	12890.5
2680.19	12838.5
2678.69	12842.5
2677.19	12812
2675.68	12786
2674.18	12708
2672.68	12794
2671.18	12724.5
2669.67	12689.5
2668.17	12613
2666.66	12677
2665.16	12732.5
2663.66	12687
2662.15	12670.5
2660.64	12643.5
2659.14	12700
2657.63	12591
2656.13	12547
2654.62	12590.5
2653.11	12576
2651.6	12432.5
2650.09	12517
2648.58	12449
2647.08	12376.5
2645.57	12394.5
2644.06	12275.5
2642.55	12366.5
2641.04	12290.5
2639.52	12210
2638.01	12298.5
2636.5	12352
2634.99	12129
2633.48	12128
2631.96	12133
2630.45	12078
2628.94	12045
2627.42	11966
2625.91	12063
2624.39	12016.5
2622.88	12044.5
2621.36	12003.5
2619.85	12011
2618.33	12006.5
2616.81	11985
2615.3	11879
2613.78	11930
2612.26	11857
2610.74	11860.5
2609.22	11888
2607.7	11927
2606.18	11765.5
2604.66	11682
2603.14	11762
2601.62	11715
2600.1	11674.5
2598.58	11652
2597.06	11561
2595.54	11450
2594.01	11513
2592.49	11439
2590.97	11382.5
2589.44	11375.5
2587.92	11372.5
2586.39	11292.5
2584.87	11366
2583.34	11341.5
2581.82	11352
2580.29	11291.5
2578.76	11308
2577.24	11299.5
2575.71	11336
2574.18	11300
2572.65	11255
2571.13	11310
2569.6	11193
2568.07	11321.5
2566.54	11296.5
2565.01	11215
2563.48	11184
2561.95	11290.5
2560.42	11220.5
2558.88	11160
2557.35	11156.5
2555.82	11081.5
2554.29	11054.5
2552.75	11001
2551.22	10920.5
2549.69	10934
2548.15	10937.5
2546.62	10840.5
2545.08	10817.5
2543.55	10926.5
2542.01	10851.5
2540.47	10782
2538.94	10905
2537.4	10722
2535.86	10667
2534.33	10638.5
2532.79	10538.5
2531.25	10576.5
2529.71	10508.5
2528.17	10504
2526.63	10533
2525.09	10494
2523.55	10361
2522.01	10453
2520.47	10393.5
2518.92	10380.5
2517.38	10319
2515.84	10325.5
2514.3	10351.5
2512.75	10348
2511.21	10284.5
2509.67	10208
2508.12	10357.5
2506.58	10203.5
2505.03	10211
2503.49	10161.5
2501.94	10113
2500.39	10039
2498.85	10036.5
2497.3	10041.5
2495.75	9969
2494.2	9912.5
2492.65	9869.5
2491.11	9854.5
2489.56	9923
2488.01	9866
2486.46	9853.5
2484.91	9850.5
2483.36	9818
2481.8	9820
2480.25	9693
2478.7	9697
2477.15	9651
2475.6	9640.5
2474.04	9638
2472.49	9608
2470.93	9531
2469.38	9434
2467.83	9394.5
2466.27	9300
2464.71	9257
2463.16	9264.5
2461.6	9210
2460.05	9170
2458.49	9180
2456.93	9076.5
2455.37	9186.5
2453.81	9103.5
2452.26	9041
2450.7	8962.5
2449.14	8998
2447.58	8857.5
2446.02	8881.5
2444.46	8799
2442.9	8689
2441.33	8699.5
2439.77	8751
2438.21	8697
2436.65	8659.5
2435.08	8651.5
2433.52	8543.5
2431.96	8613
2430.39	8637.5
2428.83	8621
2427.26	8556
2425.7	8509
2424.13	8568.5
2422.56	8526.5
2421	8546.5
2419.43	8423.5
2417.86	8489.5
2416.3	8437
2414.73	8357.5
2413.16	8360.5
2411.59	8362
2410.02	8311
2408.45	8366.5
2406.88	8354
2405.31	8366
2403.74	8322
2402.17	8252
2400.6	8347.5
2399.02	8263.5
2397.45	8192.5
2395.88	8123
2394.3	8143.5
2392.73	8149
2391.16	8142.5
2389.58	8178.5
2388.01	8102.5
2386.43	7971.5
2384.86	7963
2383.28	8074
2381.7	8060.5
2380.13	8058
2378.55	7998
2376.97	8069
2375.39	8054.5
2373.81	8040
2372.23	7892
2370.65	7971
2369.07	7947.5
2367.49	7904
2365.91	7880.5
2364.33	7878
2362.75	7819
2361.17	7863.5
2359.59	7866
2358.01	7827.5
2356.42	7759
2354.84	7875
2353.25	7809.5
2351.67	7783
2350.09	7845.5
2348.5	7743.5
2346.92	7750
2345.33	7731
2343.74	7767
2342.16	7729.5
2340.57	7746.5
2338.98	7701
2337.39	7635
2335.81	7622.5
2334.22	7709.5
2332.63	7639
2331.04	7566.5
2329.45	7518
2327.86	7560.5
2326.27	7551
2324.68	7516.5
2323.09	7462
2321.49	7423
2319.9	7425
2318.31	7303
2316.72	7355.5
2315.12	7422.5
2313.53	7282
2311.93	7319
2310.34	7213
2308.74	7333.5
2307.15	7158.5
2305.55	7193.5
2303.96	7167
2302.36	7145.5
2300.76	7139
2299.17	7106.5
2297.57	7037
2295.97	7071
2294.37	6992.5
2292.77	6889.5
2291.17	6935.5
2289.57	6919.5
2287.97	6921.5
2286.37	6900
2284.77	6877.5
2283.17	6892
2281.57	6832.5
2279.96	6905.5
2278.36	6853
2276.76	6821.5
2275.15	6734
2273.55	6749.5
2271.95	6712.5
2270.34	6696
2268.74	6680.5
2267.13	6603
2265.52	6599.5
2263.92	6537.5
2262.31	6502.5
2260.7	6535
2259.1	6502
2257.49	6488.5
2255.88	6457.5
2254.27	6476
2252.66	6507
2251.05	6483.5
2249.44	6493
2247.83	6506.5
2246.22	6472.5
2244.61	6427
2243	6417
2241.39	6492
2239.77	6483
2238.16	6409.5
2236.55	6376
2234.93	6350
2233.32	6271
2231.7	6145.5
2230.09	6216.5
2228.47	6171.5
2226.86	6132
2225.24	6073.5
2223.63	6113.5
2222.01	6053
2220.39	6109.5
2218.77	6066
2217.16	6076.5
2215.54	6029
2213.92	6065
2212.3	6036.5
2210.68	5934
2209.06	5864
2207.44	5845.5
2205.82	5843.5
2204.19	5883.5
2202.57	5895
2200.95	5846
2199.33	5812.5
2197.7	5806.5
2196.08	5704.5
2194.46	5729.5
2192.83	5750
2191.21	5717
2189.58	5753.5
2187.96	5760.5
2186.33	5705.5
2184.7	5672
2183.08	5658.5
2181.45	5642.5
2179.82	5667.5
2178.19	5573
2176.57	5566
2174.94	5465
2173.31	5525
2171.68	5510
2170.05	5422.5
2168.42	5431.5
2166.79	5465
2165.16	5427.5
2163.52	5347
2161.89	5348
2160.26	5384.5
2158.63	5340
2156.99	5302.5
2155.36	5272.5
2153.73	5314.5
2152.09	5268.5
2150.46	5275.5
2148.82	5218
2147.18	5209
2145.55	5189
2143.91	5133
2142.27	5202.5
2140.64	5058.5
2139	5094.5
2137.36	5096
2135.72	5064
2134.08	4993.5
2132.44	5008.5
2130.8	4995
2129.16	4938
2127.52	4854.5
2125.88	4861
2124.24	4821
2122.6	4767
2120.95	4730.5
2119.31	4701
2117.67	4783.5
2116.02	4745
2114.38	4780
2112.74	4721
2111.09	4674.5
2109.45	4712.5
2107.8	4604.5
2106.15	4596.5
2104.51	4589.5
2102.86	4585
2101.21	4543.5
2099.56	4543.5
2097.92	4566
2096.27	4577.5
2094.62	4493
2092.97	4557
2091.32	4532
2089.67	4522
2088.02	4555.5
2086.37	4496.5
2084.72	4441.5
2083.06	4458
2081.41	4503.5
2079.76	4452.5
2078.1	4445
2076.45	4446
2074.8	4408.5
2073.14	4385.5
2071.49	4437
2069.83	4356
2068.18	4348
2066.52	4419.5
2064.86	4349
2063.21	4327
2061.55	4349
2059.89	4360
2058.23	4345
2056.57	4359.5
2054.92	4337
2053.26	4281
2051.6	4268.5
2049.94	4264.5
2048.27	4222.5
2046.61	4171
2044.95	4206
2043.29	4204
2041.63	4144
2039.97	4175.5
2038.3	4012
2036.64	4066.5
2034.97	3985
2033.31	4132.5
2031.64	4010
2029.98	3984.5
2028.31	3923
2026.65	3989
2024.98	3925.5
2023.31	3885
2021.65	3850.5
2019.98	3845.5
2018.31	3813.5
2016.64	3882.5
2014.97	3801
2013.3	3789
2011.63	3804.5
2009.96	3765.5
2008.29	3727.5
2006.62	3763.5
2004.95	3698
2003.28	3738.5
2001.6	3726
1999.93	3662.5
1998.26	3740.5
1996.58	3700.5
1994.91	3655
1993.24	3679.5
1991.56	3675.5
1989.89	3663.5
1988.21	3584
1986.53	3614
1984.86	3599.5
1983.18	3594
1981.5	3602.5
1979.82	3562
1978.15	3518.5
1976.47	3550.5
1974.79	3580
1973.11	3516.5
1971.43	3450.5
1969.75	3489
1968.07	3398.5
1966.38	3415
1964.7	3376.5
1963.02	3413.5
1961.34	3370.5
1959.66	3350.5
1957.97	3374.5
1956.29	3346
1954.6	3347
1952.92	3255.5
1951.23	3306.5
1949.55	3305.5
1947.86	3253
1946.18	3290
1944.49	3232.5
1942.8	3239.5
1941.11	3174.5
1939.43	3164
1937.74	3180
1936.05	3207
1934.36	3215
1932.67	3191
1930.98	3133
1929.29	3160.5
1927.6	3099.5
1925.91	3093
1924.21	3099
1922.52	3030
1920.83	3055.5
1919.14	2999
1917.44	3095.5
1915.75	3047
1914.05	3047.5
1912.36	3004
1910.66	2999.5
1908.97	2960
1907.27	2976
1905.58	2945.5
1903.88	2925.5
1902.18	2878
1900.48	2871.5
1898.79	2924.5
1897.09	2841
1895.39	2804
1893.69	2826
1891.99	2861.5
1890.29	2782.5
1888.59	2760
1886.89	2776.5
1885.18	2742.5
1883.48	2769
1881.78	2690
1880.08	2687.5
1878.37	2727
1876.67	2650.5
1874.96	2669
1873.26	2666.5
1871.55	2614
1869.85	2581.5
1868.14	2578
1866.44	2600
1864.73	2581.5
1863.02	2547
1861.32	2587
1859.61	2560.5
1857.9	2504
1856.19	2548.5
1854.48	2495.5
1852.77	2519.5
1851.06	2491
1849.35	2498
1847.64	2523
1845.93	2480
1844.21	2424.5
1842.5	2480
1840.79	2511
1839.08	2434.5
1837.36	2430
1835.65	2409
1833.93	2413
1832.22	2383.5
1830.5	2408.5
1828.79	2358
1827.07	2391
1825.36	2399
1823.64	2307
1821.92	2313
1820.2	2314.5
1818.48	2301.5
1816.77	2318
1815.05	2258
1813.33	2245
1811.61	2254.5
1809.89	2249.5
1808.16	2312
1806.44	2255.5
1804.72	2223
1803	2205
1801.28	2206
1799.55	2186
1797.83	2182.5
1796.11	2156
1794.38	2173.5
1792.66	2144
1790.93	2097
1789.21	2111.5
1787.48	2108
1785.75	2125
1784.03	2088
1782.3	2074.5
1780.57	2100.5
1778.84	2041
1777.11	2057.5
1775.38	2060
1773.66	2069.5
1771.93	2078.5
1770.19	2039.5
1768.46	2048
1766.73	2022.5
1765	2006
1763.27	2040.5
1761.54	2017.5
1759.8	2063.5
1758.07	2014
1756.34	2061
1754.6	1999
1752.87	2078.5
1751.13	2023.5
1749.4	2048.5
1747.66	2035.5
1745.92	2000.5
1744.19	1994
1742.45	1992
1740.71	2041
1738.97	2000.5
1737.23	1982.5
1735.49	1937.5
1733.75	1920
1732.01	1887.5
1730.27	1860.5
1728.53	1922.5
1726.79	1862.5
1725.05	1840.5
1723.31	1870
1721.57	1878.5
1719.82	1857.5
1718.08	1844
1716.34	1849
1714.59	1790.5
1712.85	1852
1711.1	1804
1709.36	1799
1707.61	1802.5
1705.86	1746.5
1704.12	1748
1702.37	1787.5
1700.62	1729
1698.87	1779
1697.12	1728.5
1695.37	1743.5
1693.62	1662
1691.87	1698
1690.12	1645
1688.37	1714
1686.62	1615
1684.87	1625
1683.12	1653
1681.36	1665.5
1679.61	1637.5
1677.86	1653.5
1676.1	1646
1674.35	1622
1672.59	1661
1670.84	1636.5
1669.08	1645
1667.33	1671.5
1665.57	1673
1663.81	1710.5
1662.06	1710
1660.3	1695
1658.54	1809.5
1656.78	1753.5
1655.02	1733
1653.26	1713.5
1651.5	1694
1649.74	1698
1647.98	1614
1646.22	1606
1644.46	1555
1642.7	1588
1640.93	1573
1639.17	1561.5
1637.41	1511
1635.64	1499
1633.88	1519
1632.11	1494.5
1630.35	1487
1628.58	1461.5
1626.81	1440.5
1625.05	1472.5
1623.28	1433
1621.51	1431
1619.75	1438
1617.98	1414
1616.21	1434
1614.44	1410
1612.67	1429.5
1610.9	1423
1609.13	1415
1607.36	1370
1605.58	1375
1603.81	1401
1602.04	1363
1600.27	1352
1598.49	1371
1596.72	1389
1594.95	1380
1593.17	1378.5
1591.4	1357
1589.62	1362
1587.84	1328
1586.07	1342.5
1584.29	1274.5
1582.51	1319
1580.74	1322
1578.96	1294
1577.18	1356
1575.4	1284
1573.62	1280.5
1571.84	1307
1570.06	1320
1568.28	1277.5
1566.5	1242
1564.72	1238.5
1562.93	1264
1561.15	1213.5
1559.37	1244
1557.58	1250
1555.8	1233.5
1554.02	1217.5
1552.23	1206
1550.45	1164
1548.66	1212.5
1546.87	1168.5
1545.09	1195
1543.3	1190.5
1541.51	1171.5
1539.72	1154
1537.94	1173
1536.15	1141.5
1534.36	1145
1532.57	1124.5
1530.78	1150
1528.99	1120
1527.2	1107
1525.4	1131.5
1523.61	1111
1521.82	1125
1520.03	1089.5
1518.23	1125
1516.44	1087
1514.65	1130.5
1512.85	1088
1511.06	1075.5
1509.26	1120
1507.46	1075.5
1505.67	1069.5
1503.87	1108
1502.07	1119
1500.28	1102.5
1498.48	1092
1496.68	1065.5
1494.88	1125
1493.08	1091.5
1491.28	1134
1489.48	1127.5
1487.68	1084
1485.88	1081.5
1484.08	1093
1482.27	1128.5
1480.47	1099
1478.67	1126.5
1476.86	1134.5
1475.06	1140
1473.25	1130
1471.45	1185.5
1469.64	1191.5
1467.84	1216
1466.03	1304
1464.23	1279
1462.42	1330.5
1460.61	1366
1458.8	1359
1456.99	1367
1455.18	1423.5
1453.37	1420.5
1451.56	1415.5
1449.75	1462
1447.94	1505.5
1446.13	1509
1444.32	1492.5
1442.51	1492
1440.7	1543.5
1438.88	1519.5
1437.07	1482
1435.26	1429.5
1433.44	1321
1431.63	1271
1429.81	1192.5
1427.99	1145
1426.18	1103.5
1424.36	1062
1422.54	1059
1420.73	1052
1418.91	1013
1417.09	1005.5
1415.27	981
1413.45	969.5
1411.63	951
1409.81	958
1407.99	911
1406.17	918
1404.35	892
1402.53	865
1400.7	902
1398.88	909
1397.06	868.5
1395.23	902.5
1393.41	875
1391.58	838
1389.76	832.5
1387.93	874.5
1386.11	884.5
1384.28	871
1382.45	870
1380.62	857
1378.8	868
1376.97	846
1375.14	828.5
1373.31	837.5
1371.48	860
1369.65	854
1367.82	837.5
1365.99	849.5
1364.16	868
1362.32	841.5
1360.49	836
1358.66	865.5
1356.82	823
1354.99	829.5
1353.16	806
1351.32	821.5
1349.48	810.5
1347.65	825
1345.81	820
1343.98	816
1342.14	808
1340.3	783.5
1338.46	808
1336.62	798.5
1334.79	804
1332.95	814
1331.11	824
1329.27	821.5
1327.42	852
1325.58	850
1323.74	854
1321.9	860
1320.06	875
1318.21	891.5
1316.37	952.5
1314.53	951
1312.68	985
1310.84	1018
1308.99	1054
1307.15	1050
1305.3	1114
1303.45	1096.5
1301.61	1131
1299.76	1131
1297.91	1054.5
1296.06	1057.5
1294.21	1001
1292.36	945.5
1290.51	905.5
1288.66	943.5
1286.81	866
1284.96	868
1283.11	870
1281.26	880
1279.4	828.5
1277.55	814
1275.7	853
1273.84	860.5
1271.99	854.5
1270.13	823
1268.28	849
1266.42	803
1264.56	821
1262.71	832
1260.85	848.5
1258.99	819.5
1257.13	784.5
1255.27	793
1253.41	773.5
1251.56	729
1249.7	724
1247.83	705
1245.97	729.5
1244.11	682.5
1242.25	673
1240.39	672
1238.52	703.5
1236.66	645
1234.8	685
1232.93	671
1231.07	605.5
1229.2	654.5
1227.34	613
1225.47	615
1223.6	676.5
1221.74	654
1219.87	599
1218	583
1216.13	623.5
1214.26	591.5
1212.39	649
1210.53	611
1208.65	615
1206.78	563
1204.91	604
1203.04	588
1201.17	597
1199.3	564
1197.42	612
1195.55	567
1193.68	593
1191.8	588.5
1189.93	593
1188.05	569.5
1186.17	562
1184.3	571.5
1182.42	567
1180.54	537
1178.67	554.5
1176.79	599
1174.91	545.5
1173.03	546.5
1171.15	595
1169.27	566
1167.39	561
1165.51	559
1163.63	562
1161.75	550
1159.86	536.5
1157.98	525
1156.1	558
1154.21	583.5
1152.33	525
1150.44	549
1148.56	562
1146.67	574
1144.79	555.5
1142.9	552
1141.01	559
1139.12	551
1137.24	573
1135.35	547
1133.46	614
1131.57	593.5
1129.68	578
1127.79	645
1125.9	664
1124.01	623
1122.12	619
1120.22	627.5
1118.33	614
1116.44	605
1114.54	616.5
1112.65	583
1110.75	578
1108.86	619
1106.96	613
1105.07	641
1103.17	625.5
1101.27	630.5
1099.38	676
1097.48	670.5
1095.58	679
1093.68	720
1091.78	699
1089.88	727.5
1087.98	726.5
1086.08	731
1084.18	758.5
1082.28	775
1080.38	721.5
1078.47	753
1076.57	744
1074.67	713.5
1072.76	691
1070.86	691
1068.95	700
1067.05	748.5
1065.14	728
1063.24	719.5
1061.33	726.5
1059.42	658
1057.51	605
1055.6	620.5
1053.7	590.5
1051.79	566
1049.88	571
1047.97	577
1046.06	580
1044.14	581
1042.23	587.5
1040.32	587
1038.41	578.5
1036.5	587
1034.58	574
1032.67	595
1030.75	582
1028.84	555
1026.92	588
1025.01	599.5
1023.09	585.5
1021.17	584
1019.26	579
1017.34	551.5
1015.42	582
1013.5	574
1011.58	557.5
1009.66	571
1007.74	578
1005.82	591
1003.9	553
1001.98	555.5
1000.06	572
998.134	557
996.212	598
994.288	569
992.364	605
990.44	628.5
988.515	646
986.589	671.5
984.663	682.5
982.737	687.5
980.81	701
978.883	714.5
976.955	717.5
975.027	767.5
973.098	770
971.169	736
969.239	763.5
967.308	748.5
965.378	762
963.447	764.5
961.516	715
959.583	760
957.65	775
955.718	766.5
953.784	788
951.85	840.5
949.916	759
947.981	808.5
946.045	801.5
944.109	843.5
942.173	810
940.236	801
938.298	823
936.36	808
934.422	765
932.484	760.5
930.544	701.5
928.604	687
926.664	609
924.724	618.5
922.782	590
920.84	585
918.898	574.5
916.955	616
915.012	575
913.068	543
911.124	568
909.18	574
907.235	574
905.289	583.5
903.343	535
901.397	589.5
899.45	585
897.502	583
895.554	619
893.605	636.5
891.657	608
889.707	635
887.758	637.5
885.807	630
883.856	606
881.905	610.5
879.953	620.5
878.001	634.5
876.048	632.5
874.094	633
872.14	660.5
870.186	692
868.232	625.5
866.276	624
864.321	629.5
862.365	616
860.408	586.5
858.451	652
856.493	612.5
854.535	582
852.576	600.5
850.617	638.5
848.658	593.5
846.698	574
844.737	613.5
842.776	603.5
840.814	562.5
838.852	587
836.89	564
834.927	558
832.963	533.5
830.999	549
829.035	541
827.07	511.5
825.105	481
823.139	477
821.172	502.5
819.206	486
817.238	459
815.27	482.5
813.301	503
811.333	456.5
809.363	463.5
807.394	417
805.424	442.5
803.453	432
801.482	433
799.509	407
797.538	445.5
795.565	369.5
793.592	394.5
791.618	364
789.643	383
787.669	397.5
785.693	385
783.718	392
781.742	404.5
779.765	386
777.788	405
775.811	379.5
773.832	391
771.853	339
769.875	371
767.895	397.5
765.915	373.5
763.934	372.5
761.953	347
759.972	368
757.99	333
756.007	365
754.024	363
752.041	350
750.056	352.5
748.072	359
746.087	385
744.102	355
742.116	363.5
740.13	387
738.143	366
736.155	345
734.167	359
732.179	390.5
730.19	390
728.2	356
726.21	374.5
724.22	387.5
722.229	367
720.237	327.5
718.246	376.5
716.253	363.5
714.26	343
712.267	357
710.273	351
708.279	334.5
706.284	348
704.289	338
702.293	321.5
700.296	349.5
698.3	344
696.303	374.5
694.305	363
692.307	350
690.307	336
688.308	338
686.309	363
684.308	346
682.308	365
680.306	352
678.304	371
676.302	364
674.3	379
672.296	357
670.293	388
668.289	352
666.284	321
664.278	357
662.273	397
660.266	336
658.26	372
656.252	374
654.244	392.5
652.237	366
650.227	384
648.218	378
646.209	345
644.198	376
642.188	345
640.177	378
638.165	415
636.153	368.5
634.14	349
632.128	393
630.113	381.5
628.099	408
626.085	428
624.07	401
622.054	398
620.038	429
618.021	407
616.004	402
613.986	416
611.968	389
609.949	408
607.93	406
605.911	411
603.891	382
601.87	415
599.848	402
597.827	377.5
595.805	416
593.782	425
591.759	326
589.735	370
587.711	400
585.687	390
583.661	371.5
581.636	369
579.609	348
577.583	390
575.555	342
573.527	370
571.5	432
569.471	376
567.441	356
565.412	403.5
563.382	432.5
561.351	383
559.32	375.5
557.289	434
555.257	454
553.223	479
551.19	478.5
549.157	479
547.122	518.5
545.088	499
543.053	564
541.017	643
538.981	660
536.943	789
534.907	993.5
532.869	1335
530.831	1856
528.792	2775
526.752	4402
524.713	6665
522.673	8614
520.632	8904.5
518.591	7399
516.549	5422.5
514.507	3616.5
512.464	2350
510.42	1587
508.377	1134.5
506.332	862.5
504.288	731
502.242	649.5
500.196	614.5
498.15	550.5
496.104	546.5
494.056	576.5
492.008	523.5
489.96	486
487.911	541
485.862	457
483.812	466
481.761	454
479.71	461
477.659	460
475.607	425
473.555	451
471.502	459.5
469.448	433.5
467.395	447
465.34	434
463.285	438.5
461.23	439.5
459.174	416
457.118	469.5
455.061	483
453.003	443
450.945	471
448.887	486.5
446.828	470
444.768	473
442.708	495
440.647	479
438.587	440
436.525	492.5
434.463	497
432.4	501.5
430.337	475
428.274	498
426.21	496
424.145	510.5
422.079	509
420.014	502.5
417.948	522.5
415.882	504
413.814	488
411.746	522
409.679	506.5
407.609	497
405.54	537
403.47	570
401.401	530.5
399.329	538
397.258	527
395.187	524
393.114	556
391.041	520.5
388.968	533
386.895	546
384.82	555
382.745	553
380.67	517
378.594	545
376.517	554
374.44	546
372.363	553
370.286	560.5
368.207	512.5
366.128	571.5
364.049	549
361.969	595
359.888	569.5
357.807	599
355.725	604
353.643	606.5
351.561	568
349.477	598
347.394	587
345.31	590.5
343.226	594
341.141	620.5
339.055	577
336.968	628
334.882	621.5
332.795	659
330.707	675
328.618	651
326.53	677
324.44	672.5
322.351	746.5
320.26	741.5
318.17	746
316.078	798.5
313.987	812
311.895	855.5
309.802	891
307.708	956
305.614	958.5
303.52	965
301.425	971
299.329	935.5
297.233	888.5
295.137	876
293.039	839
290.942	821.5
288.844	805
286.745	815.5
284.647	790
282.546	788.5
280.446	738
278.346	768
276.245	784
274.143	743
272.041	778
269.939	751
267.835	781.5
265.731	808
263.627	805.5
261.522	782
259.417	812
257.311	811
255.204	804
253.098	845
250.99	859.5
248.882	800
246.774	828.5
244.664	848
242.555	851
240.445	827
238.334	861.5
236.223	848
234.112	865
232	874.5
229.888	882.5
227.775	913.5
225.661	892.5
223.546	901.5
221.431	920.5
219.316	945
217.201	928
215.084	890
212.967	915.5
210.85	917
208.732	882
206.614	929
204.495	913
202.375	952
200.256	915.5
198.135	936
196.014	949
193.893	911
191.771	948.5
189.648	936
187.525	962
185.401	957.5
183.277	929
181.152	947
179.027	966
176.901	977
174.775	996.5
172.648	975.5
170.521	1009
168.393	979.5
166.265	1008
164.136	1067
162.007	1030
159.876	1049
157.746	1066
155.615	1090
153.483	1147.5
151.351	1145
149.219	1207.5
147.086	1228
144.952	1230.5
142.818	1256
140.684	1277
138.548	1371.5
136.413	1380.5
134.276	1389
132.139	1433
130.002	1458
127.864	1531.5
125.725	1578
123.587	1622
121.447	1687
119.307	1722
117.166	1807.5
115.026	1851
112.885	1835
110.743	1967.5
108.6	1972.5
106.456	2061
104.313	2062.5
102.169	2061
100.023	2002.5
97.8789	1893
95.7328	1703.5
93.5869	1601.5
91.4392	1345
89.2919	1162
87.1447	930
84.9959	748
