3528.51	444.5
3527.23	458
3525.95	481
3524.67	466
3523.39	504.5
3522.1	497
3520.82	509
3519.54	489
3518.26	514
3516.97	490
3515.69	518
3514.4	514.5
3513.12	503
3511.84	492.5
3510.55	525
3509.26	550
3507.98	552
3506.69	548
3505.41	532.5
3504.12	550
3502.83	561.5
3501.54	558
3500.26	563.5
3498.97	567.5
3497.68	562
3496.39	579
3495.1	584
3493.81	609.5
3492.52	602
3491.23	620.5
3489.94	614
3488.65	614.5
3487.36	645.5
3486.07	651
3484.78	653
3483.49	691
3482.19	660
3480.9	668
3479.61	663.5
3478.31	704.5
3477.02	675
3475.73	675.5
3474.43	675.5
3473.14	731.5
3471.84	765
3470.54	725
3469.25	717
3467.95	736.5
3466.66	742
3465.36	758.5
3464.06	750
3462.76	757.5
3461.46	736.5
3460.17	792.5
3458.87	752
3457.57	774.5
3456.27	755
3454.97	795
3453.67	789.5
3452.37	813.5
3451.07	804
3449.77	808.5
3448.47	832
3447.16	828.5
3445.86	851
3444.56	876.5
3443.26	829.5
3441.95	895
3440.65	877
3439.35	937
3438.04	922
3436.74	919.5
3435.43	934
3434.13	973
3432.82	963
3431.52	1007
3430.21	1016
3428.9	1025
3427.6	1045.5
3426.29	1084
3424.98	1101
3423.67	1105.5
3422.36	1114
3421.06	1114
3419.75	1125
3418.44	1129
3417.13	1121
3415.82	1210.5
3414.51	1214
3413.2	1194.5
3411.88	1221.5
3410.57	1191.5
3409.26	1257.5
3407.95	1255
3406.64	1253
3405.32	1245
3404.01	1301
3402.7	1289
3401.38	1283
3400.07	1265
3398.75	1302.5
3397.44	1309.5
3396.12	1346
3394.81	1336
3393.49	1343.5
3392.18	1379
3390.86	1387.5
3389.54	1355
3388.23	1392.5
3386.91	1409
3385.59	1437
3384.27	1424
3382.95	1449
3381.63	1516.5
3380.31	1487
3378.99	1487
3377.67	1479.5
3376.35	1514.5
3375.03	1579
3373.71	1560
3372.39	1536
3371.07	1577.5
3369.75	1577.5
3368.42	1578.5
3367.1	1599
3365.78	1608
3364.45	1592
3363.13	1641
3361.81	1643
3360.48	1649.5
3359.16	1698.5
3357.83	1684
3356.51	1674
3355.18	1699.5
3353.85	1684
3352.53	1733.5
3351.2	1691
3349.87	1702.5
3348.54	1725
3347.22	1721.5
3345.89	1738
3344.56	1746.5
3343.23	1764.5
3341.9	1720.5
3340.57	1735
3339.24	1766.5
3337.91	1758.5
3336.58	1745
3335.25	1764.5
3333.92	1768
3332.58	1754.5
3331.25	1805.5
3329.92	1823.5
3328.59	1805
3327.25	1836.5
3325.92	1867
3324.58	1830
3323.25	1860.5
3321.92	1849.5
3320.58	1900
3319.25	1926.5
3317.91	1905.5
3316.57	1898
3315.24	1913.5
3313.9	1899.5
3312.56	1944.5
3311.23	1925
3309.89	1917
3308.55	1960
3307.21	1975.5
3305.87	1946
3304.53	2014.5
3303.19	1977.5
3301.85	1950
3300.51	1998
3299.17	2001.5
3297.83	2065
3296.49	1992.5
3295.15	2087
3293.81	2051
3292.46	2085
3291.12	2097.5
3289.78	2081
3288.43	2069
3287.09	2096
3285.75	2080
3284.4	2146.5
3283.06	2096.5
3281.71	2131.5
3280.37	2098
3279.02	2177.5
3277.67	2109.5
3276.33	2184
3274.98	2180.5
3273.63	2150
3272.28	2204
3270.94	2224
3269.59	2266
3268.24	2258
3266.89	2251
3265.54	2323.5
3264.19	2299
3262.84	2365
3261.49	2393
3260.14	2393
3258.79	2456
3257.44	2498
3256.08	2525
3254.73	2600.5
3253.38	2673.5
3252.03	2666.5
3250.67	2755.5
3249.32	2816
3247.96	2901
3246.61	2933
3245.26	3054
3243.9	3119.5
3242.54	3125
3241.19	3271.5
3239.83	3350
3238.48	3406
3237.12	3505
3235.76	3611.5
3234.41	3651
3233.05	3802
3231.69	3830.5
3230.33	3962
3228.97	4028.5
3227.61	4173
3226.25	4232
3224.89	4233
3223.53	4295.5
3222.17	4373.5
3220.81	4411
3219.45	4500.5
3218.09	4548.5
3216.72	4530.5
3215.36	4754
3214	4671.5
3212.63	4632
3211.27	4749.5
3209.91	4783.5
3208.54	4779
3207.18	4853.5
3205.81	4887.5
3204.45	4859
3203.08	4879
3201.71	4927
3200.35	4972
3198.98	5005.5
3197.61	5080.5
3196.25	5094
3194.88	5122.5
3193.51	5087.5
3192.14	5176.5
3190.77	5132
3189.4	5212
3188.03	5202
3186.66	5241.5
3185.29	5194.5
3183.92	5329
3182.55	5280.5
3181.18	5277.5
3179.81	5345
3178.44	5429
3177.06	5449
3175.69	5408
3174.32	5482
3172.94	5520.5
3171.57	5630.5
3170.2	5625
3168.82	5696.5
3167.45	5667.5
3166.07	5786
3164.69	5789
3163.32	5810
3161.94	5914.5
3160.56	5869.5
3159.19	5984.5
3157.81	5969.5
3156.43	6054.5
3155.05	6053.5
3153.67	6133
3152.3	6157
3150.92	6204
3149.54	6288
3148.16	6220.5
3146.78	6351.5
3145.4	6469
3144.01	6457
3142.63	6470.5
3141.25	6590.5
3139.87	6607
3138.49	6533
3137.1	6690
3135.72	6703
3134.34	6747.5
3132.95	6822.5
3131.57	6836.5
3130.18	6866.5
3128.8	6943.5
3127.41	6884
3126.03	6984
3124.64	7043
3123.25	7103.5
3121.87	7163.5
3120.48	7232.5
3119.09	7253
3117.7	7227.5
3116.32	7268.5
3114.93	7393
3113.54	7374.5
3112.15	7322
3110.76	7358.5
3109.37	7466
3107.98	7546.5
3106.59	7539.5
3105.2	7570
3103.8	7565.5
3102.41	7663.5
3101.02	7680.5
3099.63	7728
3098.23	7677
3096.84	7775.5
3095.45	7655.5
3094.05	7732.5
3092.66	7756.5
3091.26	7906.5
3089.87	7763.5
3088.47	7912.5
3087.08	7914
3085.68	8035
3084.28	7948
3082.89	8054
3081.49	8039.5
3080.09	7971.5
3078.69	8094.5
3077.3	8057.5
3075.9	8069
3074.5	8038
3073.1	8121
3071.7	8020
3070.3	8184.5
3068.9	8178.5
3067.5	8206.5
3066.09	8263
3064.69	8196.5
3063.29	8203.5
3061.89	8287
3060.48	8168
3059.08	8289
3057.68	8339
3056.27	8390.5
3054.87	8317.5
3053.46	8336.5
3052.06	8378
3050.65	8439.5
3049.25	8453.5
3047.84	8427.5
3046.44	8523
3045.03	8506.5
3043.62	8542.5
3042.21	8596.5
3040.81	8557
3039.4	8614.5
3037.99	8665.5
3036.58	8638.5
3035.17	8673.5
3033.76	8647
3032.35	8712
3030.94	8762
3029.53	8737.5
3028.12	8798.5
3026.71	8832
3025.29	8737.5
3023.88	8852.5
3022.47	8800.5
3021.06	8851.5
3019.64	8876
3018.23	8892
3016.82	8988.5
3015.4	8961.5
3013.99	8967
3012.57	8930
3011.15	8974.5
3009.74	9019.5
3008.32	9043
3006.91	9035
3005.49	9063.5
3004.07	9091
3002.65	9121.5
3001.24	9049.5
2999.82	9127.5
2998.4	9275.5
2996.98	9277.5
2995.56	9272
2994.14	9290
2992.72	9415
2991.3	9421.5
2989.88	9554
2988.46	9502.5
2987.03	9557.5
2985.61	9670
2984.19	9563.5
2982.77	9827
2981.34	9701.5
2979.92	9739
2978.49	9878.5
2977.07	9861
2975.65	9939.5
2974.22	9932
2972.79	9900
2971.37	10084.5
2969.94	10035
2968.52	10196.5
2967.09	10224
2965.66	10177
2964.23	10220.5
2962.81	10273.5
2961.38	10271.5
2959.95	10268.5
2958.52	10348
2957.09	10296.5
2955.66	10358
2954.23	10396
2952.8	10242
2951.37	10493.5
2949.94	10488.5
2948.5	10498.5
2947.07	10532.5
2945.64	10560.5
2944.21	10448.5
2942.77	10560.5
2941.34	10581
2939.91	10467
2938.47	10723
2937.04	10643.5
2935.6	10636.5
2934.17	10746
2932.73	10771
2931.29	10803.5
2929.86	10817.5
2928.42	10867
2926.98	10921.5
2925.55	10911
2924.11	11062.5
2922.67	10950
2921.23	11077.5
2919.79	11047.5
2918.35	10995.5
2916.91	10997.5
2915.47	10948
2914.03	11025
2912.59	11132
2911.15	11205
2909.71	11174.5
2908.26	11159.5
2906.82	11170.5
2905.38	11243.5
2903.94	11187.5
2902.49	11229
2901.05	11245.5
2899.6	11383
2898.16	11351.5
2896.71	11442
2895.27	11410
2893.82	11264.5
2892.38	11438.5
2890.93	11362.5
2889.48	11390.5
2888.03	11437
2886.59	11350.5
2885.14	11388
2883.69	11440.5
2882.24	11491.5
2880.79	11551.5
2879.34	11449
2877.89	11510.5
2876.44	11541.5
2874.99	11550.5
2873.54	11504
2872.09	11544
2870.64	11518.5
2869.18	11614
2867.73	11582.5
2866.28	11589.5
2864.83	11579.5
2863.37	11687
2861.92	11683
2860.46	11630.5
2859.01	11610.5
2857.55	11678
2856.1	11643.5
2854.64	11477
2853.19	11602.5
2851.73	11585.5
2850.27	11649
2848.81	11659.5
2847.36	11595.5
2845.9	11590
2844.44	11661
2842.98	11629.5
2841.52	11585.5
2840.06	11575.5
2838.6	11562
2837.14	11524
2835.68	11544.5
2834.22	11454
2832.76	11473.5
2831.3	11473.5
2829.83	11488.5
2828.37	11390
2826.91	11417.5
2825.44	11441
2823.98	11437
2822.52	11394.5
2821.05	11392.5
2819.59	11400
2818.12	11348
2816.66	11427
2815.19	11212
2813.72	11221
2812.26	11213.5
2810.79	11217
2809.32	11172.5
2807.85	11153.5
2806.38	11187.5
2804.92	11336.5
2803.45	11283
2801.98	11268
2800.51	11152.5
2799.04	11135
2797.57	11295.5
2796.1	11076.5
2794.62	11117
2793.15	11063.5
2791.68	11039
2790.21	10998
2788.73	11121.5
2787.26	11011
2785.79	11017.5
2784.31	11069.5
2782.84	11066
2781.36	11087
2779.89	11034.5
2778.41	11041
2776.94	11208.5
2775.46	11253
2773.99	11189.5
2772.51	11216
2771.03	11222.5
2769.55	11226.5
2768.07	11339
2766.6	11298
2765.12	11330.5
2763.64	11330
2762.16	11374
2760.68	11327
2759.2	11346.5
2757.72	11283
2756.24	11301
2754.75	11274
2753.27	11266.5
2751.79	11324
2750.31	11369
2748.82	11272.5
2747.34	11174
2745.86	11241
2744.37	11311.5
2742.89	11186.5
2741.4	11265.5
2739.92	11228.5
2738.43	11158.5
2736.94	11187
2735.46	11229
2733.97	11262.5
2732.48	11186
2731	11117
2729.51	11120
2728.02	11156.5
2726.53	11116.5
2725.04	11087
2723.55	11124
2722.06	11063.5
2720.57	11075.5
2719.08	11095
2717.59	11151
2716.1	11071
2714.61	11198
2713.11	11058
2711.62	11196
2710.13	11099.5
2708.64	11055.5
2707.14	11175
2705.65	11101
2704.15	11088.5
2702.66	11158.5
2701.16	11073
2699.67	11003
2698.17	11088
2696.67	11035.5
2695.18	10950.5
2693.68	10958.5
2692.18	11191
2690.69	10952.5
2689.19	11002
2687.69	11055.5
2686.19	10995
2684.69	10887.5
2683.19	10865.5
2681.69	10853
2680.19	10777
2678.69	10811
2677.19	10726.5
2675.68	10858.5
2674.18	10807
2672.68	10711.5
2671.18	10720
2669.67	10771.5
2668.17	10768
2666.66	10717.5
2665.16	10618.5
2663.66	10667.5
2662.15	10663.5
2660.64	10690.5
2659.14	10736.5
2657.63	10696
2656.13	10683.5
2654.62	10678.5
2653.11	10604.5
2651.6	10676.5
2650.09	10514
2648.58	10512
2647.08	10436.5
2645.57	10456.5
2644.06	10481.5
2642.55	10489.5
2641.04	10516
2639.52	10425
2638.01	10391.5
2636.5	10369.5
2634.99	10325.5
2633.48	10308.5
2631.96	10237
2630.45	10205.5
2628.94	10202
2627.42	10185
2625.91	10242
2624.39	10201.5
2622.88	10220
2621.36	10257
2619.85	10094.5
2618.33	10186
2616.81	10030.5
2615.3	10043.5
2613.78	10025
2612.26	10078.5
2610.74	10016.5
2609.22	10075
2607.7	10037.5
2606.18	9962.5
2604.66	9957
2603.14	9860.5
2601.62	9734.5
2600.1	9749
2598.58	9698.5
2597.06	9788
2595.54	9650.5
2594.01	9692
2592.49	9738.5
2590.97	9675.5
2589.44	9649
2587.92	9627
2586.39	9602
2584.87	9626
2583.34	9566.5
2581.82	9642
2580.29	9617
2578.76	9568
2577.24	9598
2575.71	9580
2574.18	9592
2572.65	9529
2571.13	9570
2569.6	9500
2568.07	9560
2566.54	9634
2565.01	9557
2563.48	9476.5
2561.95	9525.5
2560.42	9491.5
2558.88	9454.5
2557.35	9484
2555.82	9421
2554.29	9349.5
2552.75	9316.5
2551.22	9289
2549.69	9313.5
2548.15	9264
2546.62	9267
2545.08	9190.5
2543.55	9140
2542.01	9205
2540.47	9206
2538.94	9011
2537.4	9108
2535.86	8986
2534.33	8991
2532.79	9070
2531.25	9013
2529.71	9074.5
2528.17	9008.5
2526.63	8859.5
2525.09	8885
2523.55	8794.5
2522.01	8845.5
2520.47	8703
2518.92	8781.5
2517.38	8750
2515.84	8808
2514.3	8780.5
2512.75	8698
2511.21	8763
2509.67	8680
2508.12	8644
2506.58	8613.5
2505.03	8585
2503.49	8561
2501.94	8494
2500.39	8516
2498.85	8546
2497.3	8463
2495.75	8418.5
2494.2	8354.5
2492.65	8432.5
2491.11	8398.5
2489.56	8326
2488.01	8288
2486.46	8270
2484.91	8331
2483.36	8284.5
2481.8	8267
2480.25	8308
2478.7	8138
2477.15	8163
2475.6	8198.5
2474.04	8100
2472.49	8030.5
2470.93	8127
2469.38	7961
2467.83	7916.5
2466.27	7853
2464.71	7821
2463.16	7799
2461.6	7755.5
2460.05	7860.5
2458.49	7773.5
2456.93	7624
2455.37	7674.5
2453.81	7656.5
2452.26	7583.5
2450.7	7585
2449.14	7556.5
2447.58	7463
2446.02	7475
2444.46	7443.5
2442.9	7296
2441.33	7423.5
2439.77	7400
2438.21	7371.5
2436.65	7405.5
2435.08	7379
2433.52	7359
2431.96	7306
2430.39	7262
2428.83	7238.5
2427.26	7293.5
2425.7	7288.5
2424.13	7121.5
2422.56	7167.5
2421	7204
2419.43	7167
2417.86	7171.5
2416.3	7079.5
2414.73	7207
2413.16	7151.5
2411.59	7088
2410.02	7100
2408.45	7023
2406.88	7087.5
2405.31	7121.5
2403.74	7005.5
2402.17	7041
2400.6	7027
2399.02	7071.5
2397.45	6938.5
2395.88	6951
2394.3	6874.5
2392.73	6916.5
2391.16	6839.5
2389.58	6809
2388.01	6939
2386.43	6890.5
2384.86	6948.5
2383.28	6778
2381.7	6823.5
2380.13	6896
2378.55	6853
2376.97	6860.5
2375.39	6783
2373.81	6791.5
2372.23	6800.5
2370.65	6758.5
2369.07	6769.5
2367.49	6725.5
2365.91	6735.5
2364.33	6645
2362.75	6674.5
2361.17	6616
2359.59	6643
2358.01	6682
2356.42	6636.5
2354.84	6673.5
2353.25	6594.5
2351.67	6580
2350.09	6597.5
2348.5	6565
2346.92	6620
2345.33	6545.5
2343.74	6551
2342.16	6544
2340.57	6485
2338.98	6525.5
2337.39	6439
2335.81	6447.5
2334.22	6467
2332.63	6417
2331.04	6437
2329.45	6503.5
2327.86	6410
2326.27	6380.5
2324.68	6342
2323.09	6386.5
2321.49	6337.5
2319.9	6360.5
2318.31	6282.5
2316.72	6291.5
2315.12	6209
2313.53	6278.5
2311.93	6184
2310.34	6165
2308.74	6158
2307.15	6112
2305.55	6079.5
2303.96	6053.5
2302.36	6041
2300.76	6029.5
2299.17	6017.5
2297.57	5948
2295.97	5960.5
2294.37	5905.5
2292.77	5913
2291.17	5963.5
2289.57	5818.5
2287.97	5771.5
2286.37	5851
2284.77	5853.5
2283.17	5880
2281.57	5878
2279.96	5814.5
2278.36	5797
2276.76	5747.5
2275.15	5782
2273.55	5784.5
2271.95	5706
2270.34	5717.5
2268.74	5613.5
2267.13	5685
2265.52	5599
2263.92	5536
2262.31	5571
2260.7	5534
2259.1	5567
2257.49	5497
2255.88	5456
2254.27	5495
2252.66	5551.5
2251.05	5534.5
2249.44	5452
2247.83	5471.5
2246.22	5465
2244.61	5401
2243	5451
2241.39	5365.5
2239.77	5416.5
2238.16	5406.5
2236.55	5367.5
2234.93	5393.5
2233.32	5351
2231.7	5319
2230.09	5177.5
2228.47	5263.5
2226.86	5274
2225.24	5217
2223.63	5165
2222.01	5228
2220.39	5176
2218.77	5196
2217.16	5132.5
2215.54	5079.5
2213.92	5105
2212.3	5087
2210.68	4987.5
2209.06	5031
2207.44	5085.5
2205.82	4940.5
2204.19	4933.5
2202.57	4952.5
2200.95	4976
2199.33	4888
2197.7	4925.5
2196.08	4910.5
2194.46	4867
2192.83	4800.5
2191.21	4827
2189.58	4840.5
2187.96	4885.5
2186.33	4814
2184.7	4847
2183.08	4791
2181.45	4797.5
2179.82	4693.5
2178.19	4639
2176.57	4702.5
2174.94	4661
2173.31	4680
2171.68	4737.5
2170.05	4587
2168.42	4635.5
2166.79	4640
2165.16	4570.5
2163.52	4560.5
2161.89	4500
2160.26	4544.5
2158.63	4477
2156.99	4492
2155.36	4508.5
2153.73	4472.5
2152.09	4452
2150.46	4459
2148.82	4413.5
2147.18	4408.5
2145.55	4407.5
2143.91	4438.5
2142.27	4380
2140.64	4361
2139	4351.5
2137.36	4295
2135.72	4245
2134.08	4250
2132.44	4271.5
2130.8	4198.5
2129.16	4153.5
2127.52	4199
2125.88	4134
2124.24	4128
2122.6	4095.5
2120.95	4076
2119.31	4107
2117.67	4019.5
2116.02	3980
2114.38	3944.5
2112.74	4064
2111.09	3993.5
2109.45	3969.5
2107.8	3957
2106.15	3972.5
2104.51	3974.5
2102.86	3898
2101.21	3861
2099.56	3916
2097.92	3824.5
2096.27	3860.5
2094.62	3773.5
2092.97	3822.5
2091.32	3802.5
2089.67	3842.5
2088.02	3769.5
2086.37	3760.5
2084.72	3774
2083.06	3791
2081.41	3840
2079.76	3780
2078.1	3726.5
2076.45	3734.5
2074.8	3751.5
2073.14	3737
2071.49	3695
2069.83	3736
2068.18	3776
2066.52	3655
2064.86	3673.5
2063.21	3700.5
2061.55	3685.5
2059.89	3625.5
2058.23	3649.5
2056.57	3620
2054.92	3614
2053.26	3683
2051.6	3674
2049.94	3590
2048.27	3600.5
2046.61	3543.5
2044.95	3556.5
2043.29	3558
2041.63	3570.5
2039.97	3492.5
2038.3	3491.5
2036.64	3429.5
2034.97	3434.5
2033.31	3440.5
2031.64	3413
2029.98	3392
2028.31	3388.5
2026.65	3375.5
2024.98	3373.5
2023.31	3348
2021.65	3248
2019.98	3305.5
2018.31	3267.5
2016.64	3224.5
2014.97	3238
2013.3	3248
2011.63	3219.5
2009.96	3168.5
2008.29	3228.5
2006.62	3228.5
2004.95	3172
2003.28	3211
2001.6	3159.5
1999.93	3192
1998.26	3123
1996.58	3138
1994.91	3145.5
1993.24	3066.5
1991.56	3123
1989.89	3025.5
1988.21	3021.5
1986.53	3090.5
1984.86	3016.5
1983.18	3015
1981.5	3063.5
1979.82	2959.5
1978.15	3026.5
1976.47	3003.5
1974.79	2963
1973.11	2977.5
1971.43	2950.5
1969.75	2923
1968.07	2927.5
1966.38	2916.5
1964.7	2926
1963.02	2858
1961.34	2856
1959.66	2848.5
1957.97	2820.5
1956.29	2788.5
1954.6	2865
1952.92	2831
1951.23	2812
1949.55	2776.5
1947.86	2779
1946.18	2791.5
1944.49	2760
1942.8	2743
1941.11	2718.5
1939.43	2780
1937.74	2718.5
1936.05	2735
1934.36	2699
1932.67	2642
1930.98	2662
1929.29	2637
1927.6	2665
1925.91	2629.5
1924.21	2628.5
1922.52	2583.5
1920.83	2608.5
1919.14	2572.5
1917.44	2553.5
1915.75	2576.5
1914.05	2555.5
1912.36	2561.5
1910.66	2506
1908.97	2512.5
1907.27	2525.5
1905.58	2556
1903.88	2449
1902.18	2436
1900.48	2449.5
1898.79	2449.5
1897.09	2461
1895.39	2424.5
1893.69	2395
1891.99	2392
1890.29	2401
1888.59	2349.5
1886.89	2350.5
1885.18	2339.5
1883.48	2361
1881.78	2324
1880.08	2311
1878.37	2299
1876.67	2286
1874.96	2258
1873.26	2239.5
1871.55	2224
1869.85	2187
1868.14	2210
1866.44	2233.5
1864.73	2222.5
1863.02	2215.5
1861.32	2190.5
1859.61	2133
1857.9	2179
1856.19	2136.5
1854.48	2133
1852.77	2146.5
1851.06	2150.5
1849.35	2107.5
1847.64	2107.5
1845.93	2090.5
1844.21	2112.5
1842.5	2067.5
1840.79	2060
1839.08	2082
1837.36	2075
1835.65	2047.5
1833.93	2036
1832.22	2057
1830.5	2010.5
1828.79	2030.5
1827.07	2050.5
1825.36	1962.5
1823.64	1995
1821.92	1986.5
1820.2	1948
1818.48	1930
1816.77	1980
1815.05	1965.5
1813.33	1869
1811.61	1961.5
1809.89	1834
1808.16	1938
1806.44	1944
1804.72	1854
1803	1889.5
1801.28	1865.5
1799.55	1833.5
1797.83	1848.5
1796.11	1838
1794.38	1836
1792.66	1839
1790.93	1802.5
1789.21	1762.5
1787.48	1832
1785.75	1761.5
1784.03	1768
1782.3	1807
1780.57	1718
1778.84	1725
1777.11	1736
1775.38	1711
1773.66	1757.5
1771.93	1758.5
1770.19	1705
1768.46	1752.5
1766.73	1742
1765	1751.5
1763.27	1718.5
1761.54	1723.5
1759.8	1752
1758.07	1726.5
1756.34	1745.5
1754.6	1753.5
1752.87	1745.5
1751.13	1750.5
1749.4	1755
1747.66	1774
1745.92	1760.5
1744.19	1785
1742.45	1736.5
1740.71	1714.5
1738.97	1705
1737.23	1727
1735.49	1700
1733.75	1633.5
1732.01	1614
1730.27	1658
1728.53	1615.5
1726.79	1603.5
1725.05	1611
1723.31	1576.5
1721.57	1562.5
1719.82	1585.5
1718.08	1532
1716.34	1528.5
1714.59	1560
1712.85	1539
1711.1	1526.5
1709.36	1494.5
1707.61	1510
1705.86	1504
1704.12	1485.5
1702.37	1527
1700.62	1486
1698.87	1443.5
1697.12	1453.5
1695.37	1476.5
1693.62	1443
1691.87	1438
1690.12	1408
1688.37	1443.5
1686.62	1397
1684.87	1408
1683.12	1397
1681.36	1363
1679.61	1448.5
1677.86	1393
1676.1	1446
1674.35	1455
1672.59	1386.5
1670.84	1423.5
1669.08	1473
1667.33	1435.5
1665.57	1484
1663.81	1554.5
1662.06	1548
1660.3	1577
1658.54	1615.5
1656.78	1639.5
1655.02	1596.5
1653.26	1603.5
1651.5	1508.5
1649.74	1486.5
1647.98	1457
1646.22	1404
1644.46	1396.5
1642.7	1346
1640.93	1333.5
1639.17	1334
1637.41	1293
1635.64	1259.5
1633.88	1284
1632.11	1262.5
1630.35	1286
1628.58	1269.5
1626.81	1252.5
1625.05	1204
1623.28	1227.5
1621.51	1209
1619.75	1185.5
1617.98	1199.5
1616.21	1234.5
1614.44	1225
1612.67	1212
1610.9	1197
1609.13	1206.5
1607.36	1193.5
1605.58	1186
1603.81	1173
1602.04	1204.5
1600.27	1151.5
1598.49	1176
1596.72	1175
1594.95	1160
1593.17	1191.5
1591.4	1155.5
1589.62	1165.5
1587.84	1178
1586.07	1140
1584.29	1147
1582.51	1161.5
1580.74	1132.5
1578.96	1125
1577.18	1167.5
1575.4	1075.5
1573.62	1131
1571.84	1114
1570.06	1092
1568.28	1088.5
1566.5	1094
1564.72	1095
1562.93	1053
1561.15	1097.5
1559.37	1048
1557.58	1068.5
1555.8	1072.5
1554.02	1081.5
1552.23	1045.5
1550.45	1029
1548.66	1019.5
1546.87	1030
1545.09	997.5
1543.3	1001.5
1541.51	1031.5
1539.72	988
1537.94	983
1536.15	1025
1534.36	1018.5
1532.57	950
1530.78	969
1528.99	1002
1527.2	962.5
1525.4	976
1523.61	970.5
1521.82	947.5
1520.03	948.5
1518.23	976.5
1516.44	972
1514.65	927.5
1512.85	987
1511.06	963
1509.26	973
1507.46	962
1505.67	965
1503.87	956
1502.07	1025
1500.28	971.5
1498.48	959.5
1496.68	980.5
1494.88	981
1493.08	967
1491.28	986
1489.48	966.5
1487.68	971.5
1485.88	981
1484.08	1023
1482.27	1007
1480.47	1030.5
1478.67	1016
1476.86	1056.5
1475.06	1053
1473.25	1098.5
1471.45	1131
1469.64	1193.5
1467.84	1202
1466.03	1272
1464.23	1299
1462.42	1303
1460.61	1358.5
1458.8	1409.5
1456.99	1469.5
1455.18	1466
1453.37	1483.5
1451.56	1556.5
1449.75	1548
1447.94	1604.5
1446.13	1625.5
1444.32	1676
1442.51	1661
1440.7	1711.5
1438.88	1666
1437.07	1611.5
1435.26	1481.5
1433.44	1398.5
1431.63	1279.5
1429.81	1211
1427.99	1136.5
1426.18	1066
1424.36	1079.5
1422.54	994
1420.73	973.5
1418.91	945.5
1417.09	953.5
1415.27	927.5
1413.45	881
1411.63	881
1409.81	846
1407.99	826
1406.17	842.5
1404.35	824
1402.53	796
1400.7	819
1398.88	796.5
1397.06	801
1395.23	804
1393.41	795
1391.58	734
1389.76	779
1387.93	774
1386.11	760
1384.28	734
1382.45	752.5
1380.62	769.5
1378.8	817
1376.97	772
1375.14	786
1373.31	766.5
1371.48	756
1369.65	815.5
1367.82	780
1365.99	786.5
1364.16	796.5
1362.32	732
1360.49	736
1358.66	727.5
1356.82	747
1354.99	748
1353.16	753.5
1351.32	779
1349.48	740
1347.65	751.5
1345.81	736
1343.98	736
1342.14	699
1340.3	721
1338.46	731
1336.62	746
1334.79	758.5
1332.95	758.5
1331.11	811
1329.27	806.5
1327.42	853.5
1325.58	858
1323.74	904.5
1321.9	869
1320.06	931.5
1318.21	971.5
1316.37	990
1314.53	1008
1312.68	1059
1310.84	1082
1308.99	1133.5
1307.15	1188.5
1305.3	1216.5
1303.45	1202
1301.61	1251
1299.76	1187.5
1297.91	1221
1296.06	1177.5
1294.21	1054.5
1292.36	1021.5
1290.51	946
1288.66	955
1286.81	903
1284.96	859
1283.11	898
1281.26	888.5
1279.4	852
1277.55	917
1275.7	873
1273.84	848.5
1271.99	891.5
1270.13	858
1268.28	850
1266.42	854.5
1264.56	836.5
1262.71	827
1260.85	847.5
1258.99	808
1257.13	776
1255.27	774
1253.41	765.5
1251.56	725
1249.7	713.5
1247.83	758.5
1245.97	664.5
1244.11	684
1242.25	629
1240.39	670.5
1238.52	680.5
1236.66	653
1234.8	648.5
1232.93	629.5
1231.07	608
1229.2	615.5
1227.34	626.5
1225.47	617
1223.6	585.5
1221.74	576.5
1219.87	587.5
1218	553.5
1216.13	544.5
1214.26	580
1212.39	582.5
1210.53	540.5
1208.65	555.5
1206.78	557.5
1204.91	554.5
1203.04	548.5
1201.17	551.5
1199.3	530
1197.42	535
1195.55	551.5
1193.68	553.5
1191.8	544
1189.93	539.5
1188.05	528.5
1186.17	546
1184.3	537.5
1182.42	546.5
1180.54	530.5
1178.67	532
1176.79	523
1174.91	525
1173.03	522.5
1171.15	530
1169.27	533.5
1167.39	521
1165.51	541
1163.63	516.5
1161.75	528
1159.86	556
1157.98	506.5
1156.1	552
1154.21	503
1152.33	539
1150.44	506
1148.56	525.5
1146.67	536.5
1144.79	558.5
1142.9	542
1141.01	551
1139.12	557.5
1137.24	561
1135.35	574.5
1133.46	611
1131.57	607
1129.68	678.5
1127.79	656.5
1125.9	694.5
1124.01	669
1122.12	652
1120.22	646
1118.33	654
1116.44	619.5
1114.54	611
1112.65	634
1110.75	646
1108.86	609
1106.96	636
1105.07	618
1103.17	650
1101.27	645.5
1099.38	640
1097.48	743.5
1095.58	742
1093.68	785.5
1091.78	783.5
1089.88	809
1087.98	790
1086.08	856.5
1084.18	833
1082.28	856
1080.38	845
1078.47	854.5
1076.57	830.5
1074.67	811
1072.76	813.5
1070.86	788
1068.95	825
1067.05	818
1065.14	848.5
1063.24	813.5
1061.33	822
1059.42	755
1057.51	666
1055.6	657
1053.7	648.5
1051.79	627
1049.88	627
1047.97	637
1046.06	629.5
1044.14	597
1042.23	602.5
1040.32	634
1038.41	619
1036.5	594.5
1034.58	618
1032.67	623.5
1030.75	606
1028.84	603.5
1026.92	610
1025.01	599
1023.09	575
1021.17	597.5
1019.26	622
1017.34	562
1015.42	597.5
1013.5	550
1011.58	542
1009.66	577
1007.74	581.5
1005.82	566.5
1003.9	589.5
1001.98	577.5
1000.06	585
998.134	583
996.212	559
994.288	612.5
992.364	640
990.44	603.5
988.515	615
986.589	644
984.663	663
982.737	670.5
980.81	692
978.883	705
976.955	703
975.027	764.5
973.098	738
971.169	741.5
969.239	736
967.308	717.5
965.378	725.5
963.447	755.5
961.516	772
959.583	742.5
957.65	772
955.718	755.5
953.784	758.5
951.85	789.5
949.916	789.5
947.981	784.5
946.045	811
944.109	810
942.173	834
940.236	857.5
938.298	842.5
936.36	810
934.422	775
932.484	755
930.544	699
928.604	707
926.664	643.5
924.724	637
922.782	639.5
920.84	628.5
918.898	616.5
916.955	618
915.012	606.5
913.068	618
911.124	618
909.18	620
907.235	659
905.289	620.5
903.343	608.5
901.397	639
899.45	622
897.502	653
895.554	700.5
893.605	698
891.657	718.5
889.707	685
887.758	685
885.807	675
883.856	687
881.905	714
879.953	728
878.001	661
876.048	743.5
874.094	728.5
872.14	741
870.186	706
868.232	691
866.276	700
864.321	699
862.365	698
860.408	740.5
858.451	654.5
856.493	646
854.535	652
852.576	695
850.617	658
848.658	653
846.698	685
844.737	652.5
842.776	655.5
840.814	649
838.852	638.5
836.89	632
834.927	582.5
832.963	583
830.999	567
829.035	573.5
827.07	551
825.105	521
823.139	528
821.172	522.5
819.206	495
817.238	492.5
815.27	491
813.301	480
811.333	462.5
809.363	439.5
807.394	424
805.424	423.5
803.453	434
801.482	445
799.509	402
797.538	387.5
795.565	406.5
793.592	361
791.618	390
789.643	383
787.669	368.5
785.693	402.5
783.718	362
781.742	396
779.765	415
777.788	369
775.811	375
773.832	385
771.853	355
769.875	386.5
767.895	373.5
765.915	381
763.934	360.5
761.953	395
759.972	353
757.99	347
756.007	366.5
754.024	350.5
752.041	371.5
750.056	348
748.072	370
746.087	406
744.102	387.5
742.116	356
740.13	360
738.143	380
736.155	363
734.167	350.5
732.179	376
730.19	368
728.2	357
726.21	330
724.22	353
722.229	334
720.237	342
718.246	379
716.253	359
714.26	360.5
712.267	331
710.273	339
708.279	295
706.284	349
704.289	332
702.293	330
700.296	325
698.3	320
696.303	334
694.305	296
692.307	335
690.307	314
688.308	340
686.309	315.5
684.308	326.5
682.308	335.5
680.306	333
678.304	333
676.302	314.5
674.3	339.5
672.296	356.5
670.293	327.5
668.289	338
666.284	324
664.278	346
662.273	329.5
660.266	328
658.26	343
656.252	344
654.244	328
652.237	316
650.227	342
648.218	355
646.209	340
644.198	348
642.188	388
640.177	331
638.165	355.5
636.153	371.5
634.14	380.5
632.128	354
630.113	381
628.099	363
626.085	382
624.07	346
622.054	377
620.038	401
618.021	394.5
616.004	385
613.986	386.5
611.968	384
609.949	415
607.93	372.5
605.911	394
603.891	404.5
601.87	371
599.848	373
597.827	373
595.805	391.5
593.782	379
591.759	365.5
589.735	369
587.711	372.5
585.687	346
583.661	371.5
581.636	361
579.609	361
577.583	367
575.555	340
573.527	350.5
571.5	343.5
569.471	384
567.441	349
565.412	370.5
563.382	383.5
561.351	394
559.32	370
557.289	427.5
555.257	372
553.223	431
551.19	439.5
549.157	459
547.122	487
545.088	525
543.053	538
541.017	567
538.981	663
536.943	754
534.907	944
532.869	1240.5
530.831	1689.5
528.792	2579
526.752	4085
524.713	6084
522.673	7714
520.632	7872
518.591	6531
516.549	4699.5
514.507	3198
512.464	2080
510.42	1392
508.377	997.5
506.332	808
504.288	697
502.242	615
500.196	579
498.15	551
496.104	538.5
494.056	499
492.008	534.5
489.96	524.5
487.911	458
485.862	476
483.812	454.5
481.761	472
479.71	486
477.659	458.5
475.607	438.5
473.555	461.5
471.502	438
469.448	442
467.395	426
465.34	430.5
463.285	420
461.23	423
459.174	446
457.118	441.5
455.061	460.5
453.003	422
450.945	451
448.887	454.5
446.828	453
444.768	451
442.708	471.5
440.647	511
438.587	508.5
436.525	498
434.463	478
432.4	489
430.337	520.5
428.274	483
426.21	503
424.145	485
422.079	518.5
420.014	521.5
417.948	488
415.882	525.5
413.814	532.5
411.746	495
409.679	527
407.609	542.5
405.54	530
403.47	527
401.401	511.5
399.329	522
397.258	530.5
395.187	534
393.114	575
391.041	553
388.968	507
386.895	516
384.82	542
382.745	555
380.67	541
378.594	558
376.517	562
374.44	547
372.363	564
370.286	571
368.207	555.5
366.128	537
364.049	564
361.969	576
359.888	588.5
357.807	571
355.725	564
353.643	590
351.561	566
349.477	588.5
347.394	578
345.31	627
343.226	643.5
341.141	635.5
339.055	612
336.968	664.5
334.882	639
332.795	653.5
330.707	653
328.618	650
326.53	711
324.44	705.5
322.351	726
320.26	739.5
318.17	737
316.078	761
313.987	822
311.895	849
309.802	832
307.708	935
305.614	955
303.52	942.5
301.425	951.5
299.329	900
297.233	897.5
295.137	870.5
293.039	852
290.942	847
288.844	818.5
286.745	818.5
284.647	822.5
282.546	817
280.446	830
278.346	796
276.245	788
274.143	805.5
272.041	766
269.939	840.5
267.835	822
265.731	843
263.627	844.5
261.522	844
259.417	857.5
257.311	876
255.204	872.5
253.098	888
250.99	887
248.882	906.5
246.774	898
244.664	906.5
242.555	939.5
240.445	928.5
238.334	938
236.223	964.5
234.112	945.5
232	931
229.888	995
227.775	1005
225.661	989
223.546	1024.5
221.431	999
219.316	1006
217.201	1030
215.084	1017
212.967	1015.5
210.85	1002
208.732	1045.5
206.614	1047.5
204.495	1048
202.375	1051.5
200.256	1017.5
198.135	1043.5
196.014	1031
193.893	1071.5
191.771	1041
189.648	1047.5
187.525	1060
185.401	1043
183.277	1078.5
181.152	1029
179.027	1055
176.901	1065
174.775	1024
172.648	1116
170.521	1126.5
168.393	1119.5
166.265	1142.5
164.136	1116
162.007	1176
159.876	1211
157.746	1192
155.615	1214
153.483	1273.5
151.351	1287.5
149.219	1350
147.086	1382.5
144.952	1395
142.818	1391
140.684	1488.5
138.548	1512
136.413	1520
134.276	1590.5
132.139	1616
130.002	1702
127.864	1718
125.725	1836.5
123.587	1817
121.447	1932
119.307	1980.5
117.166	2029
115.026	2110
112.885	2177.5
110.743	2281.5
108.6	2356
106.456	2358.5
104.313	2422.5
102.169	2407
100.023	2314
97.8789	2233
95.7328	2016
93.5869	1803
91.4392	1552
89.2919	1279.5
87.1447	1025.5
84.9959	813
