3528.51	428
3527.23	456.5
3525.95	491
3524.67	492.5
3523.39	527.5
3522.1	510.5
3520.82	497
3519.54	492
3518.26	524.5
3516.97	517
3515.69	482
3514.4	489
3513.12	493.5
3511.84	516
3510.55	527
3509.26	534
3507.98	515
3506.69	546
3505.41	528
3504.12	521
3502.83	575.5
3501.54	548
3500.26	527.5
3498.97	526.5
3497.68	556
3496.39	594
3495.1	556
3493.81	618.5
3492.52	584
3491.23	601.5
3489.94	619
3488.65	588.5
3487.36	642
3486.07	645.5
3484.78	655
3483.49	658.5
3482.19	691.5
3480.9	661
3479.61	667
3478.31	693
3477.02	712.5
3475.73	700
3474.43	679
3473.14	744
3471.84	720.5
3470.54	718
3469.25	721
3467.95	744.5
3466.66	690.5
3465.36	719
3464.06	749
3462.76	759.5
3461.46	727
3460.17	722
3458.87	737
3457.57	738
3456.27	741
3454.97	739.5
3453.67	799.5
3452.37	763.5
3451.07	775
3449.77	779
3448.47	836.5
3447.16	826.5
3445.86	773
3444.56	853
3443.26	881
3441.95	883
3440.65	869.5
3439.35	895.5
3438.04	906.5
3436.74	923
3435.43	939
3434.13	942
3432.82	1004.5
3431.52	963
3430.21	1015
3428.9	1025
3427.6	1031
3426.29	999
3424.98	1059
3423.67	1078.5
3422.36	1074
3421.06	1124
3419.75	1112.5
3418.44	1133
3417.13	1145.5
3415.82	1169
3414.51	1178
3413.2	1215
3411.88	1178.5
3410.57	1200
3409.26	1243.5
3407.95	1236
3406.64	1195.5
3405.32	1284
3404.01	1276.5
3402.7	1276
3401.38	1245
3400.07	1273
3398.75	1290.5
3397.44	1273
3396.12	1298
3394.81	1323
3393.49	1330.5
3392.18	1366
3390.86	1317
3389.54	1354
3388.23	1406
3386.91	1419.5
3385.59	1425.5
3384.27	1425.5
3382.95	1399
3381.63	1441.5
3380.31	1443
3378.99	1444.5
3377.67	1489.5
3376.35	1499
3375.03	1518.5
3373.71	1597.5
3372.39	1533
3371.07	1531
3369.75	1543
3368.42	1584.5
3367.1	1581
3365.78	1594
3364.45	1604.5
3363.13	1609.5
3361.81	1603
3360.48	1675
3359.16	1659.5
3357.83	1640.5
3356.51	1662.5
3355.18	1606
3353.85	1683
3352.53	1659
3351.2	1693
3349.87	1712
3348.54	1707
3347.22	1693
3345.89	1726
3344.56	1730
3343.23	1726
3341.9	1749
3340.57	1723
3339.24	1743.5
3337.91	1773
3336.58	1732
3335.25	1744
3333.92	1800
3332.58	1745
3331.25	1789.5
3329.92	1782
3328.59	1771
3327.25	1790
3325.92	1793
3324.58	1836.5
3323.25	1852.5
3321.92	1820.5
3320.58	1890
3319.25	1916.5
3317.91	1927.5
3316.57	1901.5
3315.24	1905
3313.9	1905
3312.56	1927.5
3311.23	1963
3309.89	1952.5
3308.55	1942
3307.21	1957.5
3305.87	1992
3304.53	1965
3303.19	1951
3301.85	1952.5
3300.51	2015.5
3299.17	2002.5
3297.83	2030
3296.49	1973
3295.15	2012.5
3293.81	2041
3292.46	2088
3291.12	2034.5
3289.78	2075.5
3288.43	2060
3287.09	2031.5
3285.75	2034
3284.4	2068.5
3283.06	2131.5
3281.71	2059
3280.37	2069
3279.02	2129
3277.67	2174
3276.33	2127
3274.98	2163
3273.63	2181.5
3272.28	2101
3270.94	2162.5
3269.59	2188
3268.24	2244.5
3266.89	2229
3265.54	2289.5
3264.19	2261
3262.84	2288
3261.49	2360
3260.14	2382
3258.79	2405
3257.44	2451
3256.08	2490
3254.73	2533
3253.38	2586
3252.03	2637
3250.67	2750
3249.32	2751.5
3247.96	2822
3246.61	2883.5
3245.26	2966.5
3243.9	3059.5
3242.54	3108
3241.19	3200
3239.83	3301
3238.48	3361.5
3237.12	3463
3235.76	3540.5
3234.41	3626
3233.05	3760
3231.69	3795
3230.33	3930.5
3228.97	3988
3227.61	4085
3226.25	4116
3224.89	4166
3223.53	4236
3222.17	4318.5
3220.81	4488
3219.45	4488
3218.09	4479
3216.72	4566.5
3215.36	4644.5
3214	4678
3212.63	4732
3211.27	4777.5
3209.91	4746.5
3208.54	4812.5
3207.18	4837
3205.81	4848.5
3204.45	4901.5
3203.08	4887.5
3201.71	4968.5
3200.35	4993
3198.98	4975
3197.61	4951
3196.25	5052.5
3194.88	5025
3193.51	5011
3192.14	5068
3190.77	5159
3189.4	5152.5
3188.03	5216
3186.66	5214
3185.29	5143.5
3183.92	5192
3182.55	5290
3181.18	5322
3179.81	5288.5
3178.44	5336.5
3177.06	5340.5
3175.69	5435
3174.32	5513
3172.94	5542
3171.57	5548.5
3170.2	5570
3168.82	5581
3167.45	5678.5
3166.07	5665.5
3164.69	5765.5
3163.32	5736
3161.94	5790.5
3160.56	5862
3159.19	5877
3157.81	5956.5
3156.43	6009
3155.05	6090
3153.67	6067.5
3152.3	6156
3150.92	6185.5
3149.54	6238
3148.16	6277
3146.78	6307.5
3145.4	6307.5
3144.01	6430
3142.63	6468.5
3141.25	6493
3139.87	6546.5
3138.49	6568
3137.1	6585
3135.72	6653.5
3134.34	6643
3132.95	6692.5
3131.57	6771
3130.18	6788.5
3128.8	6857
3127.41	6932.5
3126.03	6918.5
3124.64	7068.5
3123.25	7050
3121.87	7046
3120.48	7186.5
3119.09	7137.5
3117.7	7265.5
3116.32	7211
3114.93	7225
3113.54	7303.5
3112.15	7335
3110.76	7457.5
3109.37	7466
3107.98	7426.5
3106.59	7466.5
3105.2	7514
3103.8	7496.5
3102.41	7541
3101.02	7601.5
3099.63	7632.5
3098.23	7654.5
3096.84	7696
3095.45	7701.5
3094.05	7658
3092.66	7803.5
3091.26	7826
3089.87	7789
3088.47	7874.5
3087.08	7933
3085.68	7907.5
3084.28	7913
3082.89	8042.5
3081.49	7914
3080.09	8015
3078.69	8012.5
3077.3	8075.5
3075.9	7985
3074.5	8039
3073.1	8057
3071.7	8036.5
3070.3	8121.5
3068.9	8062
3067.5	8138
3066.09	8125
3064.69	8123
3063.29	8235.5
3061.89	8203
3060.48	8181
3059.08	8240
3057.68	8184
3056.27	8304.5
3054.87	8282.5
3053.46	8352.5
3052.06	8335.5
3050.65	8406.5
3049.25	8353
3047.84	8409
3046.44	8452.5
3045.03	8442.5
3043.62	8554.5
3042.21	8486.5
3040.81	8589.5
3039.4	8600.5
3037.99	8644.5
3036.58	8624
3035.17	8578.5
3033.76	8755
3032.35	8673.5
3030.94	8713
3029.53	8718
3028.12	8702
3026.71	8623
3025.29	8685.5
3023.88	8746.5
3022.47	8743
3021.06	8723
3019.64	8815
3018.23	8820.5
3016.82	8826.5
3015.4	8845.5
3013.99	8851.5
3012.57	8887.5
3011.15	8923
3009.74	8852
3008.32	8920
3006.91	8984.5
3005.49	8969.5
3004.07	9026
3002.65	8948
3001.24	9038.5
2999.82	9061.5
2998.4	9043
2996.98	9174.5
2995.56	9242
2994.14	9177
2992.72	9303
2991.3	9338
2989.88	9265
2988.46	9420
2987.03	9523
2985.61	9555.5
2984.19	9474
2982.77	9608
2981.34	9715
2979.92	9767.5
2978.49	9723.5
2977.07	9785.5
2975.65	9860.5
2974.22	9916.5
2972.79	9842
2971.37	9964.5
2969.94	10001
2968.52	10013.5
2967.09	10099
2965.66	10122
2964.23	10075.5
2962.81	10087.5
2961.38	10138
2959.95	10140
2958.52	10195.5
2957.09	10173.5
2955.66	10214
2954.23	10247
2952.8	10306
2951.37	10299.5
2949.94	10244.5
2948.5	10311.5
2947.07	10307
2945.64	10246.5
2944.21	10336
2942.77	10378
2941.34	10377.5
2939.91	10389.5
2938.47	10343.5
2937.04	10461.5
2935.6	10514.5
2934.17	10529
2932.73	10626
2931.29	10625.5
2929.86	10484
2928.42	10629.5
2926.98	10836.5
2925.55	10733.5
2924.11	10828
2922.67	10860
2921.23	10752.5
2919.79	10825.5
2918.35	10775.5
2916.91	10832.5
2915.47	10779.5
2914.03	10930
2912.59	10905
2911.15	10865
2909.71	10947
2908.26	10897
2906.82	10946.5
2905.38	10948
2903.94	10949.5
2902.49	10990.5
2901.05	11021.5
2899.6	11086
2898.16	11095
2896.71	11129
2895.27	11110
2893.82	10975.5
2892.38	11087.5
2890.93	11067
2889.48	11234
2888.03	11111.5
2886.59	11074
2885.14	11057
2883.69	11225
2882.24	11233.5
2880.79	11152
2879.34	11208.5
2877.89	11307
2876.44	11241.5
2874.99	11265.5
2873.54	11340
2872.09	11283.5
2870.64	11320
2869.18	11325.5
2867.73	11317.5
2866.28	11389.5
2864.83	11396
2863.37	11302
2861.92	11418.5
2860.46	11321
2859.01	11345.5
2857.55	11372.5
2856.1	11369
2854.64	11284
2853.19	11359
2851.73	11355.5
2850.27	11220
2848.81	11364
2847.36	11364.5
2845.9	11399.5
2844.44	11377.5
2842.98	11345
2841.52	11428
2840.06	11333
2838.6	11297.5
2837.14	11399.5
2835.68	11353
2834.22	11385.5
2832.76	11335.5
2831.3	11301.5
2829.83	11311
2828.37	11360
2826.91	11337.5
2825.44	11309
2823.98	11297
2822.52	11324.5
2821.05	11271.5
2819.59	11249.5
2818.12	11218
2816.66	11226
2815.19	11195
2813.72	11238.5
2812.26	11193.5
2810.79	11189.5
2809.32	11172.5
2807.85	11125.5
2806.38	11224.5
2804.92	11150.5
2803.45	11076
2801.98	11057
2800.51	11127
2799.04	11055.5
2797.57	11080.5
2796.1	11011.5
2794.62	10945
2793.15	10952.5
2791.68	10931
2790.21	10958
2788.73	10909.5
2787.26	10931.5
2785.79	10919.5
2784.31	10946.5
2782.84	10927.5
2781.36	11008
2779.89	11062.5
2778.41	11062.5
2776.94	11043
2775.46	10970.5
2773.99	11159
2772.51	11152
2771.03	11123.5
2769.55	11210.5
2768.07	11165
2766.6	11209.5
2765.12	11259
2763.64	11284.5
2762.16	11291.5
2760.68	11243.5
2759.2	11276.5
2757.72	11235
2756.24	11314.5
2754.75	11217.5
2753.27	11168.5
2751.79	11149.5
2750.31	11129
2748.82	11291
2747.34	11218
2745.86	11201
2744.37	11239.5
2742.89	11224.5
2741.4	11259.5
2739.92	11160
2738.43	11127.5
2736.94	11165.5
2735.46	11133.5
2733.97	11164
2732.48	11167
2731	11085
2729.51	11201
2728.02	11129
2726.53	11106
2725.04	11052.5
2723.55	11178
2722.06	11102
2720.57	11115.5
2719.08	11042
2717.59	10972.5
2716.1	11036.5
2714.61	11031
2713.11	11021
2711.62	11073.5
2710.13	11110.5
2708.64	10985.5
2707.14	11146
2705.65	11114
2704.15	11092
2702.66	11055.5
2701.16	11082.5
2699.67	10953.5
2698.17	11016.5
2696.67	11055
2695.18	10998
2693.68	10959.5
2692.18	10977
2690.69	11070
2689.19	11031
2687.69	10903
2686.19	10904.5
2684.69	10928.5
2683.19	10854
2681.69	10912.5
2680.19	10799.5
2678.69	10862.5
2677.19	10823
2675.68	10716.5
2674.18	10767
2672.68	10738.5
2671.18	10749.5
2669.67	10709
2668.17	10672.5
2666.66	10749.5
2665.16	10631
2663.66	10643.5
2662.15	10662.5
2660.64	10652.5
2659.14	10802.5
2657.63	10613
2656.13	10625.5
2654.62	10605.5
2653.11	10638.5
2651.6	10591.5
2650.09	10517
2648.58	10631
2647.08	10547
2645.57	10425
2644.06	10536
2642.55	10574
2641.04	10488
2639.52	10461
2638.01	10361
2636.5	10364
2634.99	10296
2633.48	10329
2631.96	10206
2630.45	10237
2628.94	10118
2627.42	10129.5
2625.91	10149
2624.39	10133.5
2622.88	10079.5
2621.36	10108
2619.85	10085.5
2618.33	10076.5
2616.81	10045.5
2615.3	10074.5
2613.78	10064.5
2612.26	10036
2610.74	9975
2609.22	10017.5
2607.7	9963
2606.18	9947
2604.66	9953
2603.14	9890
2601.62	9845
2600.1	9806
2598.58	9738
2597.06	9627
2595.54	9663
2594.01	9624.5
2592.49	9680
2590.97	9618.5
2589.44	9642
2587.92	9680.5
2586.39	9596
2584.87	9554
2583.34	9536.5
2581.82	9595.5
2580.29	9674
2578.76	9475.5
2577.24	9495.5
2575.71	9607
2574.18	9517
2572.65	9525
2571.13	9478
2569.6	9425
2568.07	9606.5
2566.54	9461
2565.01	9466.5
2563.48	9463
2561.95	9483
2560.42	9439.5
2558.88	9431
2557.35	9375.5
2555.82	9298.5
2554.29	9341
2552.75	9308.5
2551.22	9282
2549.69	9304.5
2548.15	9158
2546.62	9154
2545.08	9184.5
2543.55	9122.5
2542.01	9064.5
2540.47	9122.5
2538.94	9117.5
2537.4	9036.5
2535.86	8966
2534.33	9036
2532.79	8957
2531.25	8947
2529.71	8946
2528.17	8910
2526.63	8811.5
2525.09	8879
2523.55	8764
2522.01	8772
2520.47	8760
2518.92	8719
2517.38	8759.5
2515.84	8674.5
2514.3	8703.5
2512.75	8702.5
2511.21	8677.5
2509.67	8705.5
2508.12	8567.5
2506.58	8653.5
2505.03	8576.5
2503.49	8516
2501.94	8593.5
2500.39	8507.5
2498.85	8486.5
2497.3	8500
2495.75	8528
2494.2	8421
2492.65	8339.5
2491.11	8404
2489.56	8423.5
2488.01	8337.5
2486.46	8317
2484.91	8260.5
2483.36	8220.5
2481.8	8274.5
2480.25	8308
2478.7	8133.5
2477.15	8207
2475.6	8247
2474.04	8077.5
2472.49	8101.5
2470.93	8026.5
2469.38	7935.5
2467.83	7940
2466.27	7850.5
2464.71	7955.5
2463.16	7878.5
2461.6	7728.5
2460.05	7774
2458.49	7688
2456.93	7705
2455.37	7598.5
2453.81	7599
2452.26	7622
2450.7	7624.5
2449.14	7486
2447.58	7473.5
2446.02	7382
2444.46	7406
2442.9	7417
2441.33	7356
2439.77	7403
2438.21	7335
2436.65	7294.5
2435.08	7286
2433.52	7326
2431.96	7368
2430.39	7259
2428.83	7334.5
2427.26	7342
2425.7	7185
2424.13	7180
2422.56	7177.5
2421	7153
2419.43	7131.5
2417.86	7169
2416.3	7160.5
2414.73	7109
2413.16	7084.5
2411.59	7049
2410.02	7080
2408.45	7010
2406.88	6996.5
2405.31	7065
2403.74	7086.5
2402.17	6942
2400.6	7031
2399.02	6969
2397.45	6908.5
2395.88	6845
2394.3	6832.5
2392.73	6920
2391.16	6792
2389.58	6782.5
2388.01	6786
2386.43	6834
2384.86	6793.5
2383.28	6783.5
2381.7	6793.5
2380.13	6806.5
2378.55	6688.5
2376.97	6826.5
2375.39	6767
2373.81	6652.5
2372.23	6634.5
2370.65	6679
2369.07	6708.5
2367.49	6748.5
2365.91	6612
2364.33	6679.5
2362.75	6694.5
2361.17	6700
2359.59	6553.5
2358.01	6670.5
2356.42	6581
2354.84	6522
2353.25	6453.5
2351.67	6584
2350.09	6589
2348.5	6560
2346.92	6520.5
2345.33	6569
2343.74	6546
2342.16	6522
2340.57	6530.5
2338.98	6547
2337.39	6438
2335.81	6392
2334.22	6425
2332.63	6387
2331.04	6377
2329.45	6353
2327.86	6348
2326.27	6440
2324.68	6336
2323.09	6294
2321.49	6331
2319.9	6283.5
2318.31	6244
2316.72	6265
2315.12	6248.5
2313.53	6233.5
2311.93	6153.5
2310.34	6090
2308.74	6107
2307.15	6093.5
2305.55	6055.5
2303.96	6057
2302.36	6042
2300.76	5998.5
2299.17	6020
2297.57	6011
2295.97	5953
2294.37	5908
2292.77	5909
2291.17	5869
2289.57	5877
2287.97	5822
2286.37	5835
2284.77	5813.5
2283.17	5782
2281.57	5770
2279.96	5776.5
2278.36	5761
2276.76	5794.5
2275.15	5765
2273.55	5697.5
2271.95	5762
2270.34	5683.5
2268.74	5622
2267.13	5620.5
2265.52	5640.5
2263.92	5563
2262.31	5481
2260.7	5527.5
2259.1	5554
2257.49	5488
2255.88	5444.5
2254.27	5497.5
2252.66	5487
2251.05	5452
2249.44	5476.5
2247.83	5522
2246.22	5433
2244.61	5427
2243	5459.5
2241.39	5428
2239.77	5375.5
2238.16	5388.5
2236.55	5376.5
2234.93	5248.5
2233.32	5332.5
2231.7	5222
2230.09	5269
2228.47	5255
2226.86	5161.5
2225.24	5116.5
2223.63	5173
2222.01	5177
2220.39	5134.5
2218.77	5069
2217.16	5165
2215.54	5086
2213.92	5044.5
2212.3	5099
2210.68	5055
2209.06	5024.5
2207.44	4938.5
2205.82	5025.5
2204.19	4948
2202.57	4923.5
2200.95	4950
2199.33	4888
2197.7	4924.5
2196.08	4897
2194.46	4858
2192.83	4899.5
2191.21	4873
2189.58	4828
2187.96	4795
2186.33	4762.5
2184.7	4801
2183.08	4796
2181.45	4794
2179.82	4800.5
2178.19	4688.5
2176.57	4674
2174.94	4655
2173.31	4694
2171.68	4597.5
2170.05	4646.5
2168.42	4593
2166.79	4609
2165.16	4544.5
2163.52	4591.5
2161.89	4473
2160.26	4553
2158.63	4552
2156.99	4498
2155.36	4462
2153.73	4396
2152.09	4430.5
2150.46	4433.5
2148.82	4393
2147.18	4383.5
2145.55	4413.5
2143.91	4382.5
2142.27	4312.5
2140.64	4324
2139	4380.5
2137.36	4292.5
2135.72	4262.5
2134.08	4264.5
2132.44	4165
2130.8	4212.5
2129.16	4163
2127.52	4170.5
2125.88	4136
2124.24	4079.5
2122.6	4052.5
2120.95	4034.5
2119.31	4087
2117.67	4026
2116.02	4011.5
2114.38	3976.5
2112.74	3989
2111.09	3982.5
2109.45	3991
2107.8	3942.5
2106.15	3922.5
2104.51	3925.5
2102.86	3864
2101.21	3802
2099.56	3938.5
2097.92	3835
2096.27	3842.5
2094.62	3853
2092.97	3825.5
2091.32	3736.5
2089.67	3825
2088.02	3789.5
2086.37	3793
2084.72	3799
2083.06	3739.5
2081.41	3735.5
2079.76	3777.5
2078.1	3792.5
2076.45	3741
2074.8	3768
2073.14	3770.5
2071.49	3730.5
2069.83	3758
2068.18	3711.5
2066.52	3691.5
2064.86	3710.5
2063.21	3661
2061.55	3691
2059.89	3660.5
2058.23	3705
2056.57	3649.5
2054.92	3619
2053.26	3660.5
2051.6	3617
2049.94	3606.5
2048.27	3594.5
2046.61	3604
2044.95	3592
2043.29	3533.5
2041.63	3534
2039.97	3498.5
2038.3	3454.5
2036.64	3422
2034.97	3379.5
2033.31	3476
2031.64	3413
2029.98	3325
2028.31	3348.5
2026.65	3340.5
2024.98	3344.5
2023.31	3279
2021.65	3303.5
2019.98	3260.5
2018.31	3220.5
2016.64	3250.5
2014.97	3185
2013.3	3154.5
2011.63	3214
2009.96	3173
2008.29	3210
2006.62	3167
2004.95	3164
2003.28	3134
2001.6	3175
1999.93	3102
1998.26	3131.5
1996.58	3074
1994.91	3095
1993.24	3100.5
1991.56	3133.5
1989.89	3095.5
1988.21	3031
1986.53	3042.5
1984.86	3015
1983.18	3028
1981.5	3024.5
1979.82	3079.5
1978.15	2981.5
1976.47	2926
1974.79	3007
1973.11	2961
1971.43	2959.5
1969.75	2963
1968.07	2977
1966.38	2909.5
1964.7	2883
1963.02	2922
1961.34	2875
1959.66	2828.5
1957.97	2875
1956.29	2851
1954.6	2813
1952.92	2796.5
1951.23	2797
1949.55	2805
1947.86	2774.5
1946.18	2747.5
1944.49	2742
1942.8	2738.5
1941.11	2749.5
1939.43	2756.5
1937.74	2721.5
1936.05	2722.5
1934.36	2707.5
1932.67	2706
1930.98	2666.5
1929.29	2673.5
1927.6	2614
1925.91	2671
1924.21	2605
1922.52	2574.5
1920.83	2569
1919.14	2587.5
1917.44	2614.5
1915.75	2576.5
1914.05	2498.5
1912.36	2573.5
1910.66	2526
1908.97	2530.5
1907.27	2475
1905.58	2483
1903.88	2432.5
1902.18	2488.5
1900.48	2494
1898.79	2497.5
1897.09	2409
1895.39	2384.5
1893.69	2415
1891.99	2412
1890.29	2391
1888.59	2363.5
1886.89	2335.5
1885.18	2367.5
1883.48	2330
1881.78	2339.5
1880.08	2268.5
1878.37	2316.5
1876.67	2276
1874.96	2275.5
1873.26	2266.5
1871.55	2268
1869.85	2193
1868.14	2251
1866.44	2197
1864.73	2215.5
1863.02	2145
1861.32	2192
1859.61	2151.5
1857.9	2135.5
1856.19	2118
1854.48	2140.5
1852.77	2109
1851.06	2137
1849.35	2150.5
1847.64	2135.5
1845.93	2116.5
1844.21	2095
1842.5	2119.5
1840.79	2081.5
1839.08	2060.5
1837.36	2035.5
1835.65	2023
1833.93	2056
1832.22	2073.5
1830.5	2010.5
1828.79	2058
1827.07	2011.5
1825.36	1990
1823.64	1957
1821.92	1957.5
1820.2	1955.5
1818.48	1926.5
1816.77	1894.5
1815.05	1911
1813.33	1931
1811.61	1888.5
1809.89	1884
1808.16	1901
1806.44	1883.5
1804.72	1860
1803	1882
1801.28	1858.5
1799.55	1831.5
1797.83	1868
1796.11	1813
1794.38	1846
1792.66	1784.5
1790.93	1781
1789.21	1795
1787.48	1817.5
1785.75	1776
1784.03	1781
1782.3	1755
1780.57	1773.5
1778.84	1748.5
1777.11	1757.5
1775.38	1758
1773.66	1747
1771.93	1755
1770.19	1729
1768.46	1710
1766.73	1702
1765	1753
1763.27	1727
1761.54	1747
1759.8	1690.5
1758.07	1693
1756.34	1762
1754.6	1750
1752.87	1666.5
1751.13	1694
1749.4	1683
1747.66	1723
1745.92	1667.5
1744.19	1696
1742.45	1682.5
1740.71	1654
1738.97	1646
1737.23	1653
1735.49	1638.5
1733.75	1613.5
1732.01	1603.5
1730.27	1613
1728.53	1594
1726.79	1580
1725.05	1541
1723.31	1515
1721.57	1588.5
1719.82	1534.5
1718.08	1570
1716.34	1569.5
1714.59	1460
1712.85	1529
1711.1	1503.5
1709.36	1526.5
1707.61	1468
1705.86	1478
1704.12	1503.5
1702.37	1490.5
1700.62	1440
1698.87	1467.5
1697.12	1429.5
1695.37	1457.5
1693.62	1486
1691.87	1425
1690.12	1475
1688.37	1386.5
1686.62	1388
1684.87	1396
1683.12	1419
1681.36	1412.5
1679.61	1415.5
1677.86	1431
1676.1	1353.5
1674.35	1371
1672.59	1374
1670.84	1402
1669.08	1365.5
1667.33	1350
1665.57	1387
1663.81	1389.5
1662.06	1432
1660.3	1388
1658.54	1430
1656.78	1419.5
1655.02	1368
1653.26	1407
1651.5	1408
1649.74	1352
1647.98	1337.5
1646.22	1326
1644.46	1288
1642.7	1291
1640.93	1289
1639.17	1276.5
1637.41	1303.5
1635.64	1303
1633.88	1243
1632.11	1280.5
1630.35	1243.5
1628.58	1236.5
1626.81	1206
1625.05	1211
1623.28	1210
1621.51	1195
1619.75	1231
1617.98	1216.5
1616.21	1194
1614.44	1157
1612.67	1184.5
1610.9	1185
1609.13	1176.5
1607.36	1167.5
1605.58	1171
1603.81	1185.5
1602.04	1147.5
1600.27	1119.5
1598.49	1176
1596.72	1138
1594.95	1152
1593.17	1159
1591.4	1144
1589.62	1147
1587.84	1128.5
1586.07	1152
1584.29	1140.5
1582.51	1098
1580.74	1098.5
1578.96	1140
1577.18	1153
1575.4	1124
1573.62	1104
1571.84	1128
1570.06	1105.5
1568.28	1108
1566.5	1071.5
1564.72	1072
1562.93	1067
1561.15	1036.5
1559.37	1061.5
1557.58	1072
1555.8	1029.5
1554.02	1049.5
1552.23	1036.5
1550.45	1032
1548.66	1002
1546.87	987.5
1545.09	1018.5
1543.3	1038
1541.51	996
1539.72	1001
1537.94	1009
1536.15	1000
1534.36	953
1532.57	956
1530.78	1002.5
1528.99	990
1527.2	924
1525.4	942.5
1523.61	921
1521.82	949.5
1520.03	928
1518.23	950
1516.44	943
1514.65	956.5
1512.85	909
1511.06	939.5
1509.26	930
1507.46	885
1505.67	920.5
1503.87	927.5
1502.07	958
1500.28	917
1498.48	938.5
1496.68	920
1494.88	930
1493.08	936.5
1491.28	904
1489.48	895.5
1487.68	924
1485.88	831
1484.08	870
1482.27	924.5
1480.47	904.5
1478.67	902.5
1476.86	937.5
1475.06	916
1473.25	929
1471.45	959.5
1469.64	975
1467.84	951
1466.03	992
1464.23	1004
1462.42	1003
1460.61	1029
1458.8	1003.5
1456.99	998
1455.18	1041
1453.37	1062
1451.56	1062
1449.75	1079.5
1447.94	1078
1446.13	1063
1444.32	1081
1442.51	1070
1440.7	1101
1438.88	1068.5
1437.07	1031
1435.26	1017.5
1433.44	1005
1431.63	953
1429.81	923
1427.99	878.5
1426.18	869
1424.36	842
1422.54	849
1420.73	849
1418.91	807.5
1417.09	824.5
1415.27	818
1413.45	824
1411.63	803
1409.81	791
1407.99	785
1406.17	731.5
1404.35	752.5
1402.53	756.5
1400.7	769.5
1398.88	741
1397.06	722.5
1395.23	770
1393.41	738.5
1391.58	719.5
1389.76	721
1387.93	730
1386.11	734.5
1384.28	702.5
1382.45	726
1380.62	714.5
1378.8	729
1376.97	712
1375.14	719.5
1373.31	710.5
1371.48	719
1369.65	702
1367.82	698
1365.99	677
1364.16	723
1362.32	675.5
1360.49	709
1358.66	696.5
1356.82	658
1354.99	684
1353.16	658
1351.32	656
1349.48	650
1347.65	684
1345.81	671
1343.98	681.5
1342.14	646
1340.3	656
1338.46	684.5
1336.62	681.5
1334.79	655.5
1332.95	671
1331.11	649
1329.27	638
1327.42	646
1325.58	681
1323.74	650
1321.9	689
1320.06	719
1318.21	714.5
1316.37	726.5
1314.53	712
1312.68	732.5
1310.84	772
1308.99	782
1307.15	751.5
1305.3	809
1303.45	785
1301.61	795
1299.76	751
1297.91	755
1296.06	770
1294.21	722
1292.36	711.5
1290.51	673
1288.66	728
1286.81	635.5
1284.96	651
1283.11	643.5
1281.26	648
1279.4	636
1277.55	639
1275.7	659.5
1273.84	650.5
1271.99	614
1270.13	649.5
1268.28	639
1266.42	636
1264.56	610
1262.71	655
1260.85	660.5
1258.99	635
1257.13	604
1255.27	649
1253.41	609
1251.56	592.5
1249.7	551
1247.83	576
1245.97	582
1244.11	551
1242.25	538
1240.39	537
1238.52	565
1236.66	520
1234.8	545
1232.93	547
1231.07	525
1229.2	526
1227.34	517.5
1225.47	533
1223.6	533.5
1221.74	505.5
1219.87	520
1218	521
1216.13	495.5
1214.26	507
1212.39	516
1210.53	490
1208.65	513.5
1206.78	493
1204.91	478.5
1203.04	489
1201.17	522.5
1199.3	479
1197.42	507
1195.55	470
1193.68	477.5
1191.8	474
1189.93	507
1188.05	448
1186.17	477
1184.3	458
1182.42	477
1180.54	458.5
1178.67	466
1176.79	485
1174.91	449
1173.03	437
1171.15	495
1169.27	485
1167.39	477.5
1165.51	481
1163.63	463
1161.75	455.5
1159.86	438
1157.98	449
1156.1	471.5
1154.21	442.5
1152.33	462
1150.44	425
1148.56	442
1146.67	490
1144.79	460
1142.9	460
1141.01	455
1139.12	469.5
1137.24	456.5
1135.35	474.5
1133.46	489.5
1131.57	466
1129.68	491
1127.79	472
1125.9	500
1124.01	478
1122.12	486.5
1120.22	506
1118.33	513
1116.44	459.5
1114.54	472.5
1112.65	476
1110.75	482
1108.86	462
1106.96	488
1105.07	461
1103.17	466
1101.27	503
1099.38	520.5
1097.48	499
1095.58	473
1093.68	531
1091.78	512
1089.88	541.5
1087.98	530
1086.08	535
1084.18	554.5
1082.28	542
1080.38	485
1078.47	503
1076.57	545
1074.67	507
1072.76	479
1070.86	529
1068.95	527.5
1067.05	524
1065.14	516
1063.24	529
1061.33	501
1059.42	495.5
1057.51	450
1055.6	472
1053.7	431
1051.79	460.5
1049.88	451
1047.97	459
1046.06	442
1044.14	436
1042.23	471
1040.32	456.5
1038.41	460.5
1036.5	425
1034.58	442
1032.67	491
1030.75	465
1028.84	421
1026.92	404
1025.01	446
1023.09	427
1021.17	443.5
1019.26	447
1017.34	457
1015.42	429.5
1013.5	452.5
1011.58	444.5
1009.66	475
1007.74	443.5
1005.82	478.5
1003.9	456
1001.98	459
1000.06	444
998.134	443
996.212	489
994.288	449.5
992.364	511.5
990.44	492.5
988.515	527.5
986.589	557
984.663	548
982.737	558.5
980.81	557.5
978.883	538
976.955	583
975.027	585
973.098	591
971.169	576
969.239	603
967.308	632.5
965.378	613
963.447	576.5
961.516	605.5
959.583	617
957.65	648
955.718	599
953.784	628
951.85	661.5
949.916	624.5
947.981	648
946.045	664
944.109	675
942.173	640
940.236	638
938.298	674.5
936.36	617
934.422	600
932.484	602
930.544	552
928.604	524
926.664	484
924.724	477.5
922.782	453
920.84	426
918.898	444
916.955	481
915.012	444.5
913.068	445
911.124	441.5
909.18	428
907.235	440
905.289	418
903.343	447.5
901.397	464
899.45	460
897.502	433
895.554	449
893.605	497
891.657	449.5
889.707	456.5
887.758	464.5
885.807	449.5
883.856	430
881.905	475.5
879.953	459
878.001	451
876.048	472
874.094	469
872.14	475
870.186	479
868.232	454.5
866.276	467
864.321	443
862.365	447.5
860.408	443.5
858.451	492.5
856.493	442
854.535	400
852.576	443
850.617	457
848.658	460.5
846.698	401
844.737	452
842.776	452
840.814	404
838.852	437
836.89	441.5
834.927	452.5
832.963	416
830.999	393.5
829.035	428.5
827.07	385
825.105	369.5
823.139	392.5
821.172	399.5
819.206	409
817.238	407
815.27	355
813.301	386
811.333	376
809.363	352.5
807.394	382
805.424	383
803.453	356
801.482	343.5
799.509	363.5
797.538	363.5
795.565	331.5
793.592	344.5
791.618	321.5
789.643	331.5
787.669	353.5
785.693	332
783.718	339.5
781.742	338.5
779.765	311
777.788	338
775.811	344
773.832	328
771.853	283
769.875	336.5
767.895	327
765.915	296
763.934	324.5
761.953	309
759.972	337
757.99	284.5
756.007	316.5
754.024	313
752.041	306
750.056	317
748.072	327
746.087	293.5
744.102	299
742.116	275
740.13	300
738.143	299
736.155	298
734.167	316.5
732.179	320
730.19	328
728.2	312
726.21	323
724.22	324
722.229	330
720.237	267
718.246	311
716.253	322
714.26	298
712.267	288
710.273	292
708.279	312
706.284	277
704.289	314
702.293	316
700.296	344
698.3	287.5
696.303	336
694.305	320
692.307	304.5
690.307	312
688.308	315
686.309	318
684.308	322
682.308	319
680.306	312.5
678.304	333
676.302	338
674.3	337
672.296	298
670.293	351
668.289	335
666.284	290
664.278	320
662.273	365
660.266	352
658.26	344
656.252	320
654.244	342
652.237	311.5
650.227	352
648.218	317
646.209	312
644.198	329
642.188	347.5
640.177	361
638.165	338
636.153	322
634.14	345.5
632.128	351
630.113	343.5
628.099	333
626.085	363
624.07	338
622.054	358
620.038	391
618.021	338.5
616.004	337
613.986	375
611.968	335.5
609.949	336
607.93	352.5
605.911	312
603.891	346.5
601.87	364.5
599.848	346
597.827	345.5
595.805	367.5
593.782	356
591.759	281
589.735	330.5
587.711	357
585.687	349
583.661	323.5
581.636	328
579.609	328.5
577.583	333
575.555	338
573.527	349.5
571.5	378
569.471	313
567.441	337.5
565.412	348.5
563.382	366.5
561.351	361
559.32	337
557.289	389
555.257	399.5
553.223	417
551.19	402.5
549.157	440
547.122	443
545.088	450.5
543.053	486
541.017	536
538.981	560
536.943	677
534.907	850.5
532.869	1077.5
530.831	1532.5
528.792	2301.5
526.752	3561
524.713	5458
522.673	7127
520.632	7345
518.591	6180.5
516.549	4431.5
514.507	2997
512.464	2004
510.42	1249
508.377	961.5
506.332	734
504.288	638
502.242	572
500.196	510
498.15	505
496.104	463
494.056	507.5
492.008	415
489.96	406
487.911	438.5
485.862	406
483.812	409
481.761	395.5
479.71	385
477.659	404
475.607	396.5
473.555	384
471.502	403
469.448	393
467.395	386
465.34	404
463.285	371.5
461.23	376
459.174	363.5
457.118	404.5
455.061	424.5
453.003	388.5
450.945	409
448.887	405.5
446.828	395
444.768	405
442.708	407
440.647	407
438.587	405.5
436.525	413
434.463	421
432.4	441
430.337	411
428.274	423.5
426.21	461
424.145	440
422.079	425.5
420.014	435
417.948	421.5
415.882	424
413.814	400
411.746	453
409.679	432.5
407.609	464.5
405.54	423.5
403.47	459
401.401	451.5
399.329	462
397.258	448.5
395.187	470
393.114	444.5
391.041	424
388.968	466
386.895	488.5
384.82	444
382.745	469.5
380.67	451
378.594	483.5
376.517	469
374.44	423
372.363	471
370.286	458.5
368.207	442
366.128	477
364.049	469.5
361.969	502.5
359.888	472.5
357.807	471.5
355.725	521
353.643	465
351.561	487.5
349.477	519.5
347.394	503.5
345.31	516
343.226	480
341.141	535
339.055	494
336.968	516
334.882	545
332.795	527.5
330.707	521
328.618	539
326.53	594.5
324.44	554.5
322.351	573
320.26	592
318.17	634
316.078	630
313.987	688
311.895	691
309.802	743.5
307.708	797
305.614	793
303.52	768.5
301.425	793
299.329	775
297.233	689
295.137	724.5
293.039	698.5
290.942	641
288.844	645.5
286.745	637.5
284.647	617
282.546	613
280.446	586
278.346	584
276.245	596
274.143	594.5
272.041	592
269.939	607.5
267.835	615.5
265.731	618
263.627	614
261.522	642
259.417	613
257.311	619
255.204	637
253.098	623
250.99	661
248.882	614
246.774	622
244.664	639
242.555	644
240.445	649
238.334	650.5
236.223	683
234.112	622
232	663
229.888	675
227.775	668
225.661	675
223.546	661
221.431	700.5
219.316	695
217.201	687.5
215.084	662.5
212.967	680
210.85	682
208.732	671
206.614	697
204.495	686
202.375	732
200.256	651
198.135	718
196.014	734
193.893	678.5
191.771	678
189.648	716
187.525	763
185.401	724.5
183.277	691.5
181.152	718.5
179.027	737
176.901	755
174.775	770.5
172.648	762
170.521	804
168.393	788
166.265	778
164.136	808.5
162.007	783
159.876	810
157.746	823
155.615	866.5
153.483	884
151.351	874
149.219	921
147.086	933
144.952	968.5
142.818	963.5
140.684	1011.5
138.548	1038
136.413	1017
134.276	1052
132.139	1084
130.002	1128
127.864	1167
125.725	1170.5
123.587	1232
121.447	1239
119.307	1255.5
117.166	1331
115.026	1375.5
112.885	1397.5
110.743	1484
108.6	1477
106.456	1496.5
104.313	1491
102.169	1529.5
100.023	1471.5
97.8789	1382.5
95.7328	1251
93.5869	1157.5
91.4392	999
89.2919	810
87.1447	666
84.9959	544.5
