3528.51	304
3527.23	334
3525.95	345.5
3524.67	357.5
3523.39	372.5
3522.1	350
3520.82	397
3519.54	363
3518.26	342
3516.97	367.5
3515.69	367
3514.4	363.5
3513.12	364.5
3511.84	340
3510.55	370
3509.26	369
3507.98	387.5
3506.69	387
3505.41	372
3504.12	409.5
3502.83	365
3501.54	371
3500.26	400.5
3498.97	400
3497.68	432
3496.39	425
3495.1	381
3493.81	419
3492.52	414
3491.23	443.5
3489.94	466
3488.65	457
3487.36	454
3486.07	450.5
3484.78	483.5
3483.49	475.5
3482.19	471.5
3480.9	475
3479.61	497.5
3478.31	473.5
3477.02	491.5
3475.73	465
3474.43	516.5
3473.14	488.5
3471.84	537.5
3470.54	547.5
3469.25	494
3467.95	540
3466.66	528
3465.36	519
3464.06	530.5
3462.76	511
3461.46	526
3460.17	559
3458.87	547
3457.57	581.5
3456.27	543
3454.97	557
3453.67	571
3452.37	568
3451.07	587
3449.77	588
3448.47	623
3447.16	604.5
3445.86	595.5
3444.56	604
3443.26	585
3441.95	637
3440.65	611
3439.35	665.5
3438.04	648
3436.74	687
3435.43	685
3434.13	720
3432.82	692
3431.52	734
3430.21	725
3428.9	757.5
3427.6	752
3426.29	775
3424.98	816.5
3423.67	796
3422.36	777
3421.06	780
3419.75	803
3418.44	810.5
3417.13	826
3415.82	890.5
3414.51	870
3413.2	850
3411.88	889
3410.57	849
3409.26	907.5
3407.95	886.5
3406.64	908
3405.32	898.5
3404.01	941.5
3402.7	923
3401.38	961
3400.07	918
3398.75	983
3397.44	966.5
3396.12	967.5
3394.81	963
3393.49	937
3392.18	989.5
3390.86	1016
3389.54	1027.5
3388.23	974
3386.91	1035
3385.59	1000
3384.27	1024
3382.95	1027.5
3381.63	1059
3380.31	1057
3378.99	1086
3377.67	1059
3376.35	1104
3375.03	1101
3373.71	1101
3372.39	1094.5
3371.07	1141.5
3369.75	1116.5
3368.42	1123
3367.1	1175
3365.78	1153.5
3364.45	1157
3363.13	1155.5
3361.81	1209
3360.48	1169.5
3359.16	1173
3357.83	1214.5
3356.51	1220
3355.18	1174
3353.85	1211
3352.53	1249.5
3351.2	1248
3349.87	1223
3348.54	1222
3347.22	1257.5
3345.89	1245
3344.56	1262
3343.23	1269.5
3341.9	1281.5
3340.57	1258.5
3339.24	1303.5
3337.91	1290.5
3336.58	1233
3335.25	1270
3333.92	1255
3332.58	1272
3331.25	1322.5
3329.92	1331
3328.59	1345.5
3327.25	1345
3325.92	1371.5
3324.58	1358.5
3323.25	1388
3321.92	1295
3320.58	1363
3319.25	1351
3317.91	1393
3316.57	1368
3315.24	1338
3313.9	1397
3312.56	1368
3311.23	1423.5
3309.89	1395
3308.55	1400
3307.21	1460
3305.87	1436
3304.53	1446
3303.19	1408
3301.85	1447.5
3300.51	1469
3299.17	1392
3297.83	1475.5
3296.49	1472.5
3295.15	1489.5
3293.81	1479
3292.46	1497.5
3291.12	1465
3289.78	1496
3288.43	1513
3287.09	1483
3285.75	1523
3284.4	1537
3283.06	1512.5
3281.71	1526.5
3280.37	1542
3279.02	1532
3277.67	1556
3276.33	1552
3274.98	1576.5
3273.63	1578.5
3272.28	1533
3270.94	1614
3269.59	1621
3268.24	1617
3266.89	1648
3265.54	1621
3264.19	1629
3262.84	1700
3261.49	1706
3260.14	1708
3258.79	1738.5
3257.44	1770
3256.08	1828
3254.73	1835
3253.38	1870
3252.03	1981
3250.67	1923
3249.32	2029
3247.96	2069
3246.61	2131.5
3245.26	2186
3243.9	2211
3242.54	2264.5
3241.19	2358
3239.83	2421.5
3238.48	2429
3237.12	2520
3235.76	2609
3234.41	2676
3233.05	2674
3231.69	2739
3230.33	2865
3228.97	2921
3227.61	2936
3226.25	3044.5
3224.89	3029
3223.53	3099
3222.17	3122
3220.81	3160
3219.45	3185
3218.09	3247.5
3216.72	3337
3215.36	3338
3214	3332.5
3212.63	3421
3211.27	3427
3209.91	3488
3208.54	3424.5
3207.18	3484
3205.81	3491.5
3204.45	3526
3203.08	3558.5
3201.71	3653
3200.35	3612
3198.98	3640
3197.61	3643
3196.25	3643
3194.88	3627
3193.51	3625
3192.14	3714.5
3190.77	3719.5
3189.4	3739.5
3188.03	3681.5
3186.66	3710.5
3185.29	3749.5
3183.92	3791
3182.55	3737
3181.18	3813
3179.81	3857
3178.44	3901
3177.06	3894
3175.69	3948.5
3174.32	3918
3172.94	3968.5
3171.57	4011
3170.2	4036
3168.82	4088.5
3167.45	4065
3166.07	4143
3164.69	4121
3163.32	4192
3161.94	4189
3160.56	4246
3159.19	4230
3157.81	4278
3156.43	4366.5
3155.05	4391.5
3153.67	4462.5
3152.3	4464.5
3150.92	4537.5
3149.54	4507
3148.16	4520.5
3146.78	4641
3145.4	4559
3144.01	4619.5
3142.63	4640
3141.25	4701.5
3139.87	4693.5
3138.49	4708
3137.1	4812
3135.72	4869
3134.34	4850
3132.95	4817.5
3131.57	4958.5
3130.18	4909
3128.8	4964.5
3127.41	5000
3126.03	4990.5
3124.64	5009.5
3123.25	5078
3121.87	5146
3120.48	5206.5
3119.09	5231
3117.7	5205
3116.32	5256.5
3114.93	5250
3113.54	5261
3112.15	5274.5
3110.76	5328.5
3109.37	5351
3107.98	5437
3106.59	5363
3105.2	5399
3103.8	5402.5
3102.41	5499.5
3101.02	5461.5
3099.63	5496
3098.23	5517
3096.84	5563
3095.45	5573
3094.05	5577
3092.66	5659.5
3091.26	5638.5
3089.87	5622.5
3088.47	5684
3087.08	5707
3085.68	5707.5
3084.28	5724
3082.89	5743
3081.49	5778
3080.09	5845.5
3078.69	5769
3077.3	5706
3075.9	5790
3074.5	5829.5
3073.1	5779.5
3071.7	5862.5
3070.3	5825
3068.9	5839.5
3067.5	5855
3066.09	5858
3064.69	5875
3063.29	5926
3061.89	5958
3060.48	5911
3059.08	6009
3057.68	5992
3056.27	5992
3054.87	6003
3053.46	5965
3052.06	5982
3050.65	6041.5
3049.25	6074.5
3047.84	6090
3046.44	6100
3045.03	6071
3043.62	6150
3042.21	6153
3040.81	6173
3039.4	6199.5
3037.99	6255.5
3036.58	6248.5
3035.17	6297.5
3033.76	6348
3032.35	6356.5
3030.94	6297
3029.53	6317.5
3028.12	6282.5
3026.71	6231
3025.29	6374.5
3023.88	6330
3022.47	6361.5
3021.06	6381
3019.64	6336.5
3018.23	6442.5
3016.82	6440.5
3015.4	6435
3013.99	6441
3012.57	6402.5
3011.15	6494.5
3009.74	6456
3008.32	6526.5
3006.91	6519.5
3005.49	6497.5
3004.07	6591
3002.65	6524
3001.24	6644
2999.82	6584
2998.4	6686
2996.98	6631.5
2995.56	6709.5
2994.14	6809
2992.72	6800
2991.3	6837.5
2989.88	6806
2988.46	6849
2987.03	6959
2985.61	6886
2984.19	6972.5
2982.77	7061.5
2981.34	7077.5
2979.92	7131
2978.49	7223.5
2977.07	7147.5
2975.65	7197
2974.22	7224
2972.79	7239
2971.37	7325
2969.94	7263
2968.52	7336
2967.09	7316
2965.66	7369
2964.23	7445.5
2962.81	7460.5
2961.38	7448
2959.95	7425.5
2958.52	7471
2957.09	7444
2955.66	7528.5
2954.23	7536
2952.8	7453
2951.37	7524.5
2949.94	7554.5
2948.5	7566
2947.07	7551
2945.64	7463
2944.21	7551
2942.77	7649
2941.34	7674.5
2939.91	7656
2938.47	7676.5
2937.04	7696.5
2935.6	7752.5
2934.17	7792.5
2932.73	7786.5
2931.29	7829
2929.86	7921
2928.42	7793
2926.98	7798.5
2925.55	7909
2924.11	7908
2922.67	7891
2921.23	7957.5
2919.79	7957
2918.35	7958.5
2916.91	7978
2915.47	7979
2914.03	7920
2912.59	8081
2911.15	8120.5
2909.71	8058.5
2908.26	8112
2906.82	8064
2905.38	8054
2903.94	8073
2902.49	8117
2901.05	8210.5
2899.6	8145.5
2898.16	8278.5
2896.71	8157
2895.27	8223.5
2893.82	8267.5
2892.38	8245
2890.93	8160
2889.48	8227
2888.03	8201
2886.59	8268
2885.14	8316.5
2883.69	8262
2882.24	8373.5
2880.79	8356.5
2879.34	8315
2877.89	8421
2876.44	8302.5
2874.99	8398.5
2873.54	8416
2872.09	8371.5
2870.64	8299
2869.18	8286
2867.73	8373.5
2866.28	8383.5
2864.83	8454
2863.37	8375
2861.92	8478.5
2860.46	8470
2859.01	8314.5
2857.55	8462.5
2856.1	8411
2854.64	8394
2853.19	8446
2851.73	8483.5
2850.27	8297
2848.81	8440.5
2847.36	8336
2845.9	8353
2844.44	8394
2842.98	8372.5
2841.52	8375
2840.06	8308
2838.6	8323.5
2837.14	8326
2835.68	8254
2834.22	8189
2832.76	8281
2831.3	8228
2829.83	8238
2828.37	8231
2826.91	8210.5
2825.44	8193.5
2823.98	8191
2822.52	8117.5
2821.05	8192
2819.59	8180.5
2818.12	8082
2816.66	8134
2815.19	8117
2813.72	8167
2812.26	8030.5
2810.79	8087
2809.32	7963
2807.85	8136
2806.38	8100
2804.92	8012
2803.45	8066
2801.98	8065
2800.51	8002
2799.04	8063.5
2797.57	8005.5
2796.1	8024.5
2794.62	7963
2793.15	7961
2791.68	7886.5
2790.21	7906.5
2788.73	7980
2787.26	8001
2785.79	7947
2784.31	7951
2782.84	7962
2781.36	7954
2779.89	8071
2778.41	7992
2776.94	8054
2775.46	8129.5
2773.99	8138.5
2772.51	8084
2771.03	8081
2769.55	8106
2768.07	8098.5
2766.6	8091.5
2765.12	8059
2763.64	8189.5
2762.16	8123.5
2760.68	8109.5
2759.2	8153
2757.72	8214.5
2756.24	8174
2754.75	8134.5
2753.27	8164.5
2751.79	8139.5
2750.31	8060
2748.82	8068.5
2747.34	8128
2745.86	8127.5
2744.37	8190.5
2742.89	8107
2741.4	8075
2739.92	8141
2738.43	8035
2736.94	8046
2735.46	7925
2733.97	8086.5
2732.48	8051
2731	8007
2729.51	8023
2728.02	8019.5
2726.53	7966.5
2725.04	8003.5
2723.55	7975.5
2722.06	8010
2720.57	8033
2719.08	8002
2717.59	8001.5
2716.1	7932
2714.61	7932
2713.11	8007.5
2711.62	7936
2710.13	8021.5
2708.64	7894.5
2707.14	7995.5
2705.65	8038.5
2704.15	7919
2702.66	7918.5
2701.16	8011
2699.67	7932.5
2698.17	7921.5
2696.67	7934.5
2695.18	7882.5
2693.68	7895
2692.18	7909
2690.69	7903.5
2689.19	7828
2687.69	7918.5
2686.19	7835
2684.69	7845
2683.19	7837
2681.69	7784
2680.19	7716
2678.69	7808
2677.19	7787.5
2675.68	7803.5
2674.18	7735.5
2672.68	7692
2671.18	7681
2669.67	7708.5
2668.17	7715.5
2666.66	7691.5
2665.16	7639
2663.66	7773
2662.15	7662
2660.64	7617
2659.14	7705
2657.63	7631
2656.13	7653
2654.62	7617
2653.11	7676
2651.6	7604
2650.09	7608
2648.58	7675
2647.08	7619
2645.57	7539
2644.06	7540.5
2642.55	7607.5
2641.04	7523.5
2639.52	7520.5
2638.01	7462.5
2636.5	7468
2634.99	7400
2633.48	7385
2631.96	7325
2630.45	7326
2628.94	7334.5
2627.42	7267.5
2625.91	7376.5
2624.39	7352.5
2622.88	7285.5
2621.36	7311
2619.85	7239.5
2618.33	7279
2616.81	7310.5
2615.3	7261
2613.78	7282
2612.26	7220
2610.74	7169.5
2609.22	7192
2607.7	7227.5
2606.18	7150
2604.66	7144
2603.14	7153
2601.62	7106
2600.1	7026
2598.58	6988
2597.06	6938
2595.54	6918
2594.01	7003
2592.49	6954
2590.97	6974
2589.44	6969.5
2587.92	6886
2586.39	6886
2584.87	6999
2583.34	6999
2581.82	7023.5
2580.29	6859
2578.76	6849.5
2577.24	6835
2575.71	6892
2574.18	6961.5
2572.65	6869.5
2571.13	6891
2569.6	6801
2568.07	6945
2566.54	6933.5
2565.01	6884.5
2563.48	6805
2561.95	6814.5
2560.42	6805.5
2558.88	6807
2557.35	6706
2555.82	6721.5
2554.29	6709
2552.75	6717
2551.22	6699.5
2549.69	6669
2548.15	6656.5
2546.62	6680
2545.08	6607
2543.55	6595.5
2542.01	6596.5
2540.47	6598.5
2538.94	6624.5
2537.4	6555
2535.86	6457
2534.33	6463
2532.79	6460
2531.25	6421
2529.71	6477
2528.17	6406.5
2526.63	6455
2525.09	6289
2523.55	6330
2522.01	6280
2520.47	6390
2518.92	6291.5
2517.38	6303.5
2515.84	6190
2514.3	6222
2512.75	6251
2511.21	6236
2509.67	6143.5
2508.12	6115
2506.58	6068
2505.03	6131
2503.49	6165
2501.94	6156
2500.39	6127
2498.85	6085
2497.3	6042
2495.75	6009
2494.2	6024.5
2492.65	6069.5
2491.11	5958
2489.56	5893
2488.01	5976
2486.46	5945
2484.91	5983.5
2483.36	5999
2481.8	5907
2480.25	5919
2478.7	5875.5
2477.15	5899.5
2475.6	5846
2474.04	5741
2472.49	5812
2470.93	5781.5
2469.38	5681.5
2467.83	5705.5
2466.27	5645.5
2464.71	5637
2463.16	5624.5
2461.6	5626
2460.05	5576
2458.49	5601.5
2456.93	5543
2455.37	5552.5
2453.81	5543.5
2452.26	5447
2450.7	5387
2449.14	5357
2447.58	5350
2446.02	5393.5
2444.46	5361.5
2442.9	5316
2441.33	5278
2439.77	5261
2438.21	5245.5
2436.65	5315
2435.08	5347.5
2433.52	5244
2431.96	5255
2430.39	5204
2428.83	5244
2427.26	5241.5
2425.7	5260
2424.13	5188
2422.56	5164.5
2421	5165
2419.43	5161
2417.86	5150.5
2416.3	5098.5
2414.73	5102.5
2413.16	5113.5
2411.59	5120
2410.02	5003.5
2408.45	5052
2406.88	5076.5
2405.31	5078
2403.74	5088
2402.17	4972
2400.6	5043
2399.02	4945
2397.45	4972.5
2395.88	4963
2394.3	5000.5
2392.73	4923.5
2391.16	4924.5
2389.58	4909
2388.01	4919
2386.43	4898
2384.86	4906
2383.28	4902.5
2381.7	4847
2380.13	4912
2378.55	4873
2376.97	4797.5
2375.39	4930
2373.81	4898
2372.23	4843
2370.65	4838
2369.07	4818
2367.49	4795
2365.91	4821.5
2364.33	4800
2362.75	4838
2361.17	4783
2359.59	4770
2358.01	4768.5
2356.42	4704
2354.84	4764.5
2353.25	4743
2351.67	4724
2350.09	4676
2348.5	4744
2346.92	4730
2345.33	4707
2343.74	4699.5
2342.16	4642
2340.57	4627.5
2338.98	4652
2337.39	4639.5
2335.81	4606
2334.22	4657
2332.63	4576
2331.04	4541
2329.45	4585.5
2327.86	4590
2326.27	4533.5
2324.68	4524
2323.09	4467
2321.49	4508
2319.9	4453
2318.31	4461.5
2316.72	4481.5
2315.12	4485.5
2313.53	4480
2311.93	4426.5
2310.34	4393.5
2308.74	4420
2307.15	4380
2305.55	4370
2303.96	4357.5
2302.36	4310
2300.76	4337.5
2299.17	4298
2297.57	4280
2295.97	4322.5
2294.37	4213
2292.77	4290
2291.17	4211
2289.57	4254.5
2287.97	4205
2286.37	4207
2284.77	4221
2283.17	4188
2281.57	4175
2279.96	4144
2278.36	4189
2276.76	4134
2275.15	4169
2273.55	4067.5
2271.95	4112.5
2270.34	4056
2268.74	4051
2267.13	4006
2265.52	4002.5
2263.92	4017
2262.31	3962
2260.7	3897
2259.1	3946.5
2257.49	3977.5
2255.88	3958.5
2254.27	3944
2252.66	3924.5
2251.05	3906
2249.44	3977.5
2247.83	3861.5
2246.22	3927.5
2244.61	3882.5
2243	3871
2241.39	3884
2239.77	3855.5
2238.16	3865.5
2236.55	3843
2234.93	3835
2233.32	3745
2231.7	3793.5
2230.09	3768
2228.47	3690
2226.86	3724
2225.24	3714.5
2223.63	3748.5
2222.01	3749.5
2220.39	3688.5
2218.77	3737.5
2217.16	3680.5
2215.54	3702.5
2213.92	3641.5
2212.3	3610.5
2210.68	3589
2209.06	3554
2207.44	3588
2205.82	3594
2204.19	3510
2202.57	3538
2200.95	3547.5
2199.33	3501
2197.7	3499.5
2196.08	3538
2194.46	3466.5
2192.83	3516.5
2191.21	3476.5
2189.58	3440.5
2187.96	3485.5
2186.33	3451.5
2184.7	3450
2183.08	3434.5
2181.45	3440.5
2179.82	3372.5
2178.19	3404
2176.57	3377
2174.94	3327
2173.31	3296
2171.68	3363.5
2170.05	3323
2168.42	3246
2166.79	3266
2165.16	3291
2163.52	3273
2161.89	3236
2160.26	3207
2158.63	3205
2156.99	3206.5
2155.36	3219
2153.73	3190.5
2152.09	3179.5
2150.46	3203.5
2148.82	3155
2147.18	3156.5
2145.55	3147
2143.91	3190
2142.27	3078
2140.64	3094.5
2139	3063.5
2137.36	3074.5
2135.72	3027.5
2134.08	3008
2132.44	3006
2130.8	3016.5
2129.16	3013
2127.52	2973.5
2125.88	2970.5
2124.24	2907
2122.6	2926
2120.95	2914.5
2119.31	2843
2117.67	2918
2116.02	2810.5
2114.38	2842.5
2112.74	2898.5
2111.09	2824.5
2109.45	2824.5
2107.8	2805
2106.15	2755.5
2104.51	2807
2102.86	2779.5
2101.21	2750
2099.56	2806.5
2097.92	2717
2096.27	2729
2094.62	2775.5
2092.97	2729
2091.32	2690
2089.67	2730
2088.02	2718.5
2086.37	2743.5
2084.72	2728.5
2083.06	2750.5
2081.41	2697
2079.76	2704
2078.1	2654.5
2076.45	2704.5
2074.8	2682.5
2073.14	2695
2071.49	2620
2069.83	2678
2068.18	2623
2066.52	2653
2064.86	2576
2063.21	2595.5
2061.55	2656
2059.89	2620
2058.23	2619
2056.57	2630
2054.92	2584
2053.26	2575
2051.6	2621
2049.94	2557
2048.27	2553
2046.61	2510
2044.95	2512
2043.29	2492.5
2041.63	2527
2039.97	2492
2038.3	2500
2036.64	2460
2034.97	2444
2033.31	2394
2031.64	2435
2029.98	2437
2028.31	2321
2026.65	2390.5
2024.98	2385.5
2023.31	2386
2021.65	2372
2019.98	2337
2018.31	2286
2016.64	2309.5
2014.97	2293
2013.3	2301
2011.63	2364.5
2009.96	2262.5
2008.29	2284.5
2006.62	2247
2004.95	2220.5
2003.28	2260
2001.6	2230.5
1999.93	2210.5
1998.26	2221
1996.58	2219.5
1994.91	2207
1993.24	2140
1991.56	2183
1989.89	2214.5
1988.21	2186.5
1986.53	2205
1984.86	2171
1983.18	2188
1981.5	2169.5
1979.82	2125
1978.15	2146
1976.47	2134.5
1974.79	2123
1973.11	2122
1971.43	2104.5
1969.75	2050
1968.07	2050.5
1966.38	2068
1964.7	2101
1963.02	2038
1961.34	2026.5
1959.66	2069
1957.97	2000
1956.29	1999
1954.6	1989
1952.92	2041.5
1951.23	1984.5
1949.55	1976
1947.86	1974.5
1946.18	1968.5
1944.49	1957.5
1942.8	2010
1941.11	1930
1939.43	1943
1937.74	1973
1936.05	1975
1934.36	1936
1932.67	1892
1930.98	1917
1929.29	1858
1927.6	1918
1925.91	1915.5
1924.21	1872.5
1922.52	1809.5
1920.83	1850.5
1919.14	1820.5
1917.44	1829
1915.75	1802.5
1914.05	1858
1912.36	1856.5
1910.66	1781
1908.97	1806
1907.27	1799.5
1905.58	1768
1903.88	1765.5
1902.18	1769
1900.48	1762
1898.79	1761.5
1897.09	1700
1895.39	1684
1893.69	1698.5
1891.99	1689
1890.29	1693
1888.59	1691
1886.89	1677
1885.18	1653
1883.48	1672
1881.78	1646
1880.08	1625.5
1878.37	1618
1876.67	1630
1874.96	1582
1873.26	1603
1871.55	1598.5
1869.85	1603
1868.14	1617
1866.44	1569
1864.73	1571
1863.02	1573
1861.32	1531
1859.61	1566.5
1857.9	1566
1856.19	1577
1854.48	1519.5
1852.77	1514
1851.06	1515
1849.35	1498
1847.64	1508
1845.93	1476
1844.21	1464.5
1842.5	1494
1840.79	1504
1839.08	1458
1837.36	1467.5
1835.65	1483.5
1833.93	1401
1832.22	1458
1830.5	1465.5
1828.79	1436.5
1827.07	1431
1825.36	1448
1823.64	1414
1821.92	1392
1820.2	1407.5
1818.48	1404.5
1816.77	1399
1815.05	1400
1813.33	1381
1811.61	1361
1809.89	1324.5
1808.16	1389.5
1806.44	1353
1804.72	1342
1803	1343
1801.28	1357.5
1799.55	1318
1797.83	1332.5
1796.11	1309.5
1794.38	1331
1792.66	1323
1790.93	1309.5
1789.21	1303.5
1787.48	1268.5
1785.75	1267
1784.03	1262.5
1782.3	1290
1780.57	1259.5
1778.84	1236
1777.11	1215
1775.38	1262.5
1773.66	1245
1771.93	1264
1770.19	1237.5
1768.46	1254.5
1766.73	1295
1765	1250
1763.27	1234
1761.54	1226.5
1759.8	1247.5
1758.07	1236.5
1756.34	1285
1754.6	1280.5
1752.87	1278
1751.13	1242.5
1749.4	1259.5
1747.66	1281.5
1745.92	1245
1744.19	1244.5
1742.45	1226
1740.71	1250
1738.97	1234
1737.23	1190
1735.49	1211
1733.75	1197
1732.01	1223
1730.27	1185
1728.53	1144
1726.79	1167.5
1725.05	1191.5
1723.31	1144
1721.57	1132.5
1719.82	1131
1718.08	1125
1716.34	1135.5
1714.59	1087.5
1712.85	1094
1711.1	1106
1709.36	1102
1707.61	1096
1705.86	1081
1704.12	1088
1702.37	1076.5
1700.62	1031
1698.87	1036.5
1697.12	1043
1695.37	1061.5
1693.62	1035
1691.87	1006
1690.12	1050
1688.37	991
1686.62	1040
1684.87	1020.5
1683.12	1026.5
1681.36	976
1679.61	1006
1677.86	1014.5
1676.1	1001
1674.35	1030
1672.59	994.5
1670.84	1070.5
1669.08	1058
1667.33	1052.5
1665.57	1108.5
1663.81	1131.5
1662.06	1122
1660.3	1139
1658.54	1196
1656.78	1204.5
1655.02	1171
1653.26	1186
1651.5	1132
1649.74	1083.5
1647.98	1050
1646.22	1066
1644.46	1033.5
1642.7	1000
1640.93	1003
1639.17	913
1637.41	935.5
1635.64	944
1633.88	944
1632.11	906.5
1630.35	900
1628.58	923.5
1626.81	894
1625.05	887
1623.28	913.5
1621.51	869.5
1619.75	877
1617.98	851
1616.21	867
1614.44	860
1612.67	869
1610.9	842
1609.13	849
1607.36	863
1605.58	850
1603.81	867.5
1602.04	870
1600.27	853
1598.49	807
1596.72	868.5
1594.95	831
1593.17	868
1591.4	842
1589.62	844
1587.84	799
1586.07	839.5
1584.29	829
1582.51	828
1580.74	811.5
1578.96	815.5
1577.18	784
1575.4	796.5
1573.62	812.5
1571.84	789.5
1570.06	790.5
1568.28	772.5
1566.5	791
1564.72	814.5
1562.93	817
1561.15	805
1559.37	766
1557.58	769
1555.8	788.5
1554.02	761
1552.23	743
1550.45	770.5
1548.66	754
1546.87	733
1545.09	740.5
1543.3	732.5
1541.51	730
1539.72	725.5
1537.94	733
1536.15	731.5
1534.36	723
1532.57	733
1530.78	711
1528.99	718
1527.2	676
1525.4	720.5
1523.61	703
1521.82	698
1520.03	707
1518.23	690.5
1516.44	719.5
1514.65	685
1512.85	733
1511.06	713
1509.26	719
1507.46	701
1505.67	691
1503.87	717
1502.07	683
1500.28	706
1498.48	687
1496.68	713
1494.88	705.5
1493.08	693.5
1491.28	746.5
1489.48	719
1487.68	700
1485.88	732.5
1484.08	740.5
1482.27	744
1480.47	763
1478.67	771
1476.86	764
1475.06	814.5
1473.25	820
1471.45	848
1469.64	911.5
1467.84	931.5
1466.03	970
1464.23	1009
1462.42	1055.5
1460.61	1083.5
1458.8	1103
1456.99	1112
1455.18	1091
1453.37	1134.5
1451.56	1167.5
1449.75	1175
1447.94	1216
1446.13	1260
1444.32	1318
1442.51	1306
1440.7	1311
1438.88	1274
1437.07	1241
1435.26	1134
1433.44	1068.5
1431.63	989
1429.81	928
1427.99	863
1426.18	833.5
1424.36	794
1422.54	748
1420.73	736.5
1418.91	721.5
1417.09	715
1415.27	701
1413.45	670
1411.63	677.5
1409.81	641
1407.99	616
1406.17	643.5
1404.35	603
1402.53	569
1400.7	590.5
1398.88	568
1397.06	623
1395.23	589
1393.41	557
1391.58	602
1389.76	589
1387.93	587
1386.11	555
1384.28	570
1382.45	575
1380.62	586
1378.8	591
1376.97	562.5
1375.14	606.5
1373.31	600.5
1371.48	589.5
1369.65	594.5
1367.82	590.5
1365.99	602
1364.16	599
1362.32	574
1360.49	573
1358.66	573.5
1356.82	564.5
1354.99	582
1353.16	591
1351.32	559
1349.48	583
1347.65	576
1345.81	575.5
1343.98	566
1342.14	555
1340.3	531
1338.46	568.5
1336.62	558.5
1334.79	566
1332.95	584.5
1331.11	603
1329.27	617.5
1327.42	627.5
1325.58	667
1323.74	678
1321.9	672.5
1320.06	734
1318.21	726
1316.37	748
1314.53	791
1312.68	818
1310.84	833
1308.99	888
1307.15	908.5
1305.3	954.5
1303.45	1003
1301.61	933
1299.76	990
1297.91	946
1296.06	907
1294.21	820.5
1292.36	788
1290.51	719
1288.66	711
1286.81	691.5
1284.96	651
1283.11	686
1281.26	686
1279.4	676.5
1277.55	691.5
1275.7	672
1273.84	671.5
1271.99	681.5
1270.13	681
1268.28	657
1266.42	683
1264.56	650
1262.71	656.5
1260.85	658.5
1258.99	645
1257.13	620.5
1255.27	561
1253.41	629.5
1251.56	570
1249.7	553.5
1247.83	578.5
1245.97	536
1244.11	536
1242.25	492
1240.39	533
1238.52	488
1236.66	517
1234.8	506.5
1232.93	474
1231.07	468
1229.2	487
1227.34	498
1225.47	468
1223.6	456.5
1221.74	448
1219.87	471
1218	433
1216.13	433.5
1214.26	429
1212.39	441
1210.53	410.5
1208.65	390
1206.78	441.5
1204.91	405
1203.04	439
1201.17	447.5
1199.3	420
1197.42	416
1195.55	443.5
1193.68	413
1191.8	429
1189.93	422.5
1188.05	423
1186.17	405
1184.3	426
1182.42	404.5
1180.54	392
1178.67	426
1176.79	401.5
1174.91	409.5
1173.03	420.5
1171.15	430
1169.27	401
1167.39	438
1165.51	422
1163.63	377
1161.75	420
1159.86	414.5
1157.98	391
1156.1	412
1154.21	381
1152.33	402
1150.44	422
1148.56	428
1146.67	414.5
1144.79	438
1142.9	409
1141.01	421
1139.12	448
1137.24	459
1135.35	468
1133.46	476
1131.57	492
1129.68	513.5
1127.79	529.5
1125.9	541
1124.01	508
1122.12	518.5
1120.22	514.5
1118.33	505
1116.44	503.5
1114.54	482
1112.65	504
1110.75	503
1108.86	513
1106.96	492
1105.07	513
1103.17	539.5
1101.27	534.5
1099.38	538
1097.48	581
1095.58	594
1093.68	602
1091.78	650
1089.88	649
1087.98	651
1086.08	669
1084.18	685
1082.28	709.5
1080.38	664
1078.47	691
1076.57	667
1074.67	641
1072.76	656.5
1070.86	647
1068.95	655
1067.05	691
1065.14	672.5
1063.24	644
1061.33	612.5
1059.42	596
1057.51	545.5
1055.6	522
1053.7	530.5
1051.79	501.5
1049.88	506
1047.97	511
1046.06	519
1044.14	475
1042.23	446
1040.32	494
1038.41	500
1036.5	486
1034.58	489
1032.67	487
1030.75	492.5
1028.84	484
1026.92	481
1025.01	499
1023.09	501.5
1021.17	488.5
1019.26	474
1017.34	449
1015.42	483.5
1013.5	488.5
1011.58	469.5
1009.66	477.5
1007.74	512
1005.82	478.5
1003.9	478.5
1001.98	489
1000.06	485
998.134	499
996.212	517
994.288	508
992.364	528
990.44	537
988.515	557
986.589	557
984.663	594
982.737	536
980.81	632.5
978.883	648
976.955	617
975.027	674.5
973.098	659
971.169	645
969.239	642
967.308	665
965.378	657.5
963.447	693.5
961.516	682
959.583	679.5
957.65	692.5
955.718	684.5
953.784	681
951.85	703
949.916	733.5
947.981	737
946.045	736
944.109	733.5
942.173	789
940.236	775
938.298	793.5
936.36	734.5
934.422	695
932.484	660
930.544	655.5
928.604	616
926.664	543
924.724	558
922.782	546
920.84	491
918.898	531.5
916.955	519
915.012	501
913.068	535
911.124	509
909.18	533
907.235	537.5
905.289	478
903.343	517
901.397	557
899.45	540
897.502	548.5
895.554	570
893.605	583
891.657	574.5
889.707	590.5
887.758	602
885.807	582.5
883.856	586
881.905	604
879.953	594
878.001	599
876.048	612
874.094	618
872.14	578
870.186	575
868.232	630.5
866.276	590
864.321	593.5
862.365	592
860.408	592.5
858.451	540
856.493	539.5
854.535	554
852.576	589.5
850.617	554
848.658	532
846.698	582.5
844.737	563
842.776	516
840.814	549
838.852	532
836.89	532
834.927	514
832.963	502.5
830.999	482
829.035	480
827.07	456.5
825.105	453.5
823.139	452.5
821.172	446.5
819.206	431
817.238	439
815.27	388
813.301	410
811.333	377
809.363	374
807.394	394.5
805.424	356
803.453	382.5
801.482	373
799.509	335.5
797.538	332
795.565	351
793.592	282
791.618	334.5
789.643	344
787.669	332
785.693	326.5
783.718	323
781.742	344
779.765	360.5
777.788	298
775.811	325
773.832	348.5
771.853	305
769.875	321.5
767.895	332
765.915	329.5
763.934	280
761.953	331
759.972	289
757.99	268
756.007	308.5
754.024	299
752.041	331
750.056	313
748.072	308
746.087	325
744.102	336.5
742.116	324.5
740.13	307
738.143	308.5
736.155	293
734.167	322
732.179	306
730.19	302
728.2	319.5
726.21	330
724.22	309.5
722.229	303
720.237	329
718.246	345.5
716.253	304.5
714.26	318.5
712.267	288
710.273	298.5
708.279	274
706.284	292
704.289	301.5
702.293	288
700.296	252
698.3	280.5
696.303	304.5
694.305	282
692.307	282
690.307	275
688.308	289
686.309	284
684.308	308
682.308	275.5
680.306	291.5
678.304	295.5
676.302	310
674.3	312
672.296	310.5
670.293	290
668.289	295
666.284	311
664.278	321
662.273	282
660.266	328.5
658.26	325.5
656.252	296
654.244	302
652.237	315
650.227	313
648.218	311
646.209	319
644.198	307
642.188	326
640.177	288
638.165	306.5
636.153	339.5
634.14	338
632.128	310
630.113	367.5
628.099	314
626.085	328
624.07	355.5
622.054	352.5
620.038	377
618.021	350.5
616.004	350
613.986	351.5
611.968	338
609.949	339
607.93	358.5
605.911	334
603.891	366
601.87	311
599.848	347
597.827	331
595.805	349.5
593.782	324
591.759	338.5
589.735	338
587.711	338
585.687	307
583.661	316
581.636	307
579.609	319
577.583	307.5
575.555	320.5
573.527	328
571.5	297
569.471	347
567.441	299
565.412	347
563.382	352
561.351	347
559.32	348
557.289	371.5
555.257	357
553.223	401.5
551.19	405
549.157	424
547.122	467
545.088	498
543.053	507
541.017	546
538.981	650.5
536.943	727
534.907	941
532.869	1234.5
530.831	1751
528.792	2688
526.752	4143
524.713	6320
522.673	8242.5
520.632	8338.5
518.591	6942.5
516.549	5029.5
514.507	3442
512.464	2196.5
510.42	1390
508.377	1014.5
506.332	791
504.288	671
502.242	617.5
500.196	566.5
498.15	515.5
496.104	516.5
494.056	472
492.008	480
489.96	479
487.911	480
485.862	452
483.812	431
481.761	442.5
479.71	463
477.659	413.5
475.607	412
473.555	407
471.502	420
469.448	393
467.395	405
465.34	386
463.285	399
461.23	385
459.174	389.5
457.118	393
455.061	447
453.003	401
450.945	420.5
448.887	431
446.828	425
444.768	432.5
442.708	453.5
440.647	456
438.587	455
436.525	472.5
434.463	445
432.4	446.5
430.337	467
428.274	447
426.21	461
424.145	481
422.079	491.5
420.014	463
417.948	449
415.882	497
413.814	451
411.746	464
409.679	454
407.609	489
405.54	503
403.47	511.5
401.401	458
399.329	506
397.258	491
395.187	508.5
393.114	517
391.041	485
388.968	505
386.895	502.5
384.82	514.5
382.745	462
380.67	502.5
378.594	520
376.517	522
374.44	494
372.363	528
370.286	502
368.207	562.5
366.128	506
364.049	541.5
361.969	543
359.888	540
357.807	557.5
355.725	553
353.643	555
351.561	536
349.477	570
347.394	549
345.31	579
343.226	607
341.141	560
339.055	570
336.968	599
334.882	592.5
332.795	638.5
330.707	614.5
328.618	565
326.53	669
324.44	670
322.351	661.5
320.26	676
318.17	703
316.078	756
313.987	777
311.895	821
309.802	867.5
307.708	881
305.614	920.5
303.52	887
301.425	883.5
299.329	897.5
297.233	855
295.137	809.5
293.039	818
290.942	790
288.844	773.5
286.745	757.5
284.647	759
282.546	764.5
280.446	776.5
278.346	740
276.245	770.5
274.143	775
272.041	767
269.939	753
267.835	752
265.731	784
263.627	792.5
261.522	810
259.417	776.5
257.311	801.5
255.204	828
253.098	787
250.99	818.5
248.882	841
246.774	790
244.664	830
242.555	859
240.445	866
238.334	872
236.223	865
234.112	869
232	918.5
229.888	920
227.775	940
225.661	901
223.546	934
221.431	914
219.316	927
217.201	984
215.084	928.5
212.967	943
210.85	938
208.732	967.5
206.614	956
204.495	963
202.375	960
200.256	941
198.135	971
196.014	999
193.893	981.5
191.771	986
189.648	979
187.525	992.5
185.401	976.5
183.277	999
181.152	985.5
179.027	1015.5
176.901	988
174.775	994
172.648	1068.5
170.521	1050
168.393	1072.5
166.265	1088
164.136	1081
162.007	1118.5
159.876	1116.5
157.746	1154
155.615	1159
153.483	1213
151.351	1234
149.219	1215
147.086	1298.5
144.952	1300
142.818	1338
140.684	1411
138.548	1414.5
136.413	1439
134.276	1450
132.139	1545
130.002	1619
127.864	1646.5
125.725	1675
123.587	1765
121.447	1764
119.307	1911.5
117.166	1935
115.026	1969.5
112.885	2071.5
110.743	2101
108.6	2147.5
106.456	2235.5
104.313	2213
102.169	2253.5
100.023	2168
97.8789	2046
95.7328	1916
93.5869	1636
91.4392	1411.5
89.2919	1180
87.1447	978.5
84.9959	734.5
