3528.51	137
3527.23	141
3525.95	144.5
3524.67	143
3523.39	149
3522.1	151
3520.82	151.5
3519.54	157
3518.26	150
3516.97	155.5
3515.69	150.5
3514.4	151.5
3513.12	154.5
3511.84	156
3510.55	159
3509.26	160
3507.98	167
3506.69	152.5
3505.41	169.5
3504.12	175
3502.83	165
3501.54	163.5
3500.26	177
3498.97	174.5
3497.68	170
3496.39	172
3495.1	173.5
3493.81	178
3492.52	182.5
3491.23	187
3489.94	194
3488.65	202.5
3487.36	199
3486.07	191.5
3484.78	200
3483.49	206
3482.19	199
3480.9	207.5
3479.61	209
3478.31	204
3477.02	209
3475.73	221.5
3474.43	222
3473.14	227
3471.84	230.5
3470.54	227
3469.25	223
3467.95	222.5
3466.66	235
3465.36	228
3464.06	226
3462.76	227
3461.46	228.5
3460.17	236.5
3458.87	238
3457.57	241.5
3456.27	243.5
3454.97	260.5
3453.67	254
3452.37	240.5
3451.07	246.5
3449.77	247.5
3448.47	252.5
3447.16	257.5
3445.86	252
3444.56	274.5
3443.26	281.5
3441.95	280.5
3440.65	288.5
3439.35	276
3438.04	290.5
3436.74	282
3435.43	288
3434.13	299
3432.82	298
3431.52	314.5
3430.21	309.5
3428.9	318.5
3427.6	333
3426.29	328
3424.98	332
3423.67	335.5
3422.36	344.5
3421.06	343
3419.75	347
3418.44	346
3417.13	366
3415.82	362.5
3414.51	371.5
3413.2	363.5
3411.88	373
3410.57	386
3409.26	380
3407.95	385.5
3406.64	382
3405.32	377.5
3404.01	388
3402.7	387
3401.38	396.5
3400.07	396
3398.75	399.5
3397.44	398.5
3396.12	417.5
3394.81	423.5
3393.49	417.5
3392.18	429
3390.86	418
3389.54	415
3388.23	423
3386.91	427.5
3385.59	442
3384.27	435
3382.95	451.5
3381.63	448.5
3380.31	465.5
3378.99	460
3377.67	465
3376.35	463.5
3375.03	464.5
3373.71	464
3372.39	478.5
3371.07	474.5
3369.75	470
3368.42	487
3367.1	509.5
3365.78	509.5
3364.45	505
3363.13	501
3361.81	507
3360.48	518
3359.16	508
3357.83	511
3356.51	513
3355.18	527.5
3353.85	522.5
3352.53	534.5
3351.2	545
3349.87	545
3348.54	532
3347.22	539.5
3345.89	530.5
3344.56	538
3343.23	533
3341.9	533.5
3340.57	541
3339.24	554
3337.91	563.5
3336.58	544
3335.25	568.5
3333.92	554
3332.58	560
3331.25	559
3329.92	557
3328.59	558
3327.25	562.5
3325.92	578
3324.58	558
3323.25	579.5
3321.92	578.5
3320.58	587.5
3319.25	595
3317.91	587.5
3316.57	590
3315.24	601
3313.9	601
3312.56	595.5
3311.23	599.5
3309.89	608
3308.55	613
3307.21	616.5
3305.87	596.5
3304.53	619.5
3303.19	625
3301.85	628.5
3300.51	627
3299.17	625
3297.83	628.5
3296.49	632.5
3295.15	643.5
3293.81	630
3292.46	648
3291.12	637.5
3289.78	652
3288.43	644
3287.09	645
3285.75	664.5
3284.4	665
3283.06	658.5
3281.71	661.5
3280.37	660.5
3279.02	666
3277.67	690.5
3276.33	661.5
3274.98	685
3273.63	687.5
3272.28	697
3270.94	704
3269.59	707
3268.24	695.5
3266.89	713
3265.54	728.5
3264.19	733.5
3262.84	741.5
3261.49	746
3260.14	775
3258.79	773
3257.44	791
3256.08	819.5
3254.73	827
3253.38	840
3252.03	867.5
3250.67	869.5
3249.32	885
3247.96	912.5
3246.61	928.5
3245.26	964
3243.9	989
3242.54	1009
3241.19	1056.5
3239.83	1078.5
3238.48	1117.5
3237.12	1106
3235.76	1152.5
3234.41	1163
3233.05	1222
3231.69	1240
3230.33	1265.5
3228.97	1276.5
3227.61	1324
3226.25	1331
3224.89	1335
3223.53	1358.5
3222.17	1371.5
3220.81	1423
3219.45	1419
3218.09	1422
3216.72	1458
3215.36	1458
3214	1476.5
3212.63	1481
3211.27	1505.5
3209.91	1516
3208.54	1490
3207.18	1537.5
3205.81	1539
3204.45	1545
3203.08	1534
3201.71	1576
3200.35	1586.5
3198.98	1580
3197.61	1574
3196.25	1598.5
3194.88	1624
3193.51	1619
3192.14	1630
3190.77	1633.5
3189.4	1625
3188.03	1627.5
3186.66	1649.5
3185.29	1681
3183.92	1664
3182.55	1672
3181.18	1698.5
3179.81	1688.5
3178.44	1731
3177.06	1728
3175.69	1720.5
3174.32	1727
3172.94	1752
3171.57	1775.5
3170.2	1797
3168.82	1792.5
3167.45	1790
3166.07	1787.5
3164.69	1833
3163.32	1833
3161.94	1850.5
3160.56	1882
3159.19	1871.5
3157.81	1887
3156.43	1923
3155.05	1946.5
3153.67	1957
3152.3	1978
3150.92	1977.5
3149.54	1980.5
3148.16	1988.5
3146.78	2010.5
3145.4	2030
3144.01	2025.5
3142.63	2042
3141.25	2067.5
3139.87	2078.5
3138.49	2088
3137.1	2110.5
3135.72	2138
3134.34	2132.5
3132.95	2148.5
3131.57	2147.5
3130.18	2181.5
3128.8	2173.5
3127.41	2201.5
3126.03	2213
3124.64	2221
3123.25	2264
3121.87	2257.5
3120.48	2242.5
3119.09	2296.5
3117.7	2291
3116.32	2310
3114.93	2295
3113.54	2301.5
3112.15	2364
3110.76	2343.5
3109.37	2333.5
3107.98	2354
3106.59	2374
3105.2	2386.5
3103.8	2387
3102.41	2395
3101.02	2415
3099.63	2432
3098.23	2429
3096.84	2441.5
3095.45	2427.5
3094.05	2428
3092.66	2476.5
3091.26	2500
3089.87	2461
3088.47	2481
3087.08	2519
3085.68	2512.5
3084.28	2501
3082.89	2507
3081.49	2502.5
3080.09	2510
3078.69	2518
3077.3	2516
3075.9	2523
3074.5	2569
3073.1	2548.5
3071.7	2553
3070.3	2561.5
3068.9	2572.5
3067.5	2592
3066.09	2571
3064.69	2580.5
3063.29	2598.5
3061.89	2577
3060.48	2555
3059.08	2604
3057.68	2625.5
3056.27	2636
3054.87	2640
3053.46	2669
3052.06	2660.5
3050.65	2664
3049.25	2693.5
3047.84	2691.5
3046.44	2695.5
3045.03	2704
3043.62	2700
3042.21	2721.5
3040.81	2748.5
3039.4	2740
3037.99	2738
3036.58	2757.5
3035.17	2784.5
3033.76	2792
3032.35	2778
3030.94	2758.5
3029.53	2803.5
3028.12	2794.5
3026.71	2806
3025.29	2819.5
3023.88	2818.5
3022.47	2811.5
3021.06	2827
3019.64	2838.5
3018.23	2848
3016.82	2846.5
3015.4	2822.5
3013.99	2855
3012.57	2831.5
3011.15	2851
3009.74	2863
3008.32	2884
3006.91	2863.5
3005.49	2879.5
3004.07	2859
3002.65	2888.5
3001.24	2908
2999.82	2941.5
2998.4	2935.5
2996.98	2962
2995.56	2977.5
2994.14	2989
2992.72	2987
2991.3	3007
2989.88	3027.5
2988.46	3030
2987.03	3045
2985.61	3083.5
2984.19	3088
2982.77	3095
2981.34	3152
2979.92	3137.5
2978.49	3148.5
2977.07	3177.5
2975.65	3155
2974.22	3213
2972.79	3190
2971.37	3246
2969.94	3247.5
2968.52	3225
2967.09	3255.5
2965.66	3280.5
2964.23	3270
2962.81	3306
2961.38	3294
2959.95	3306
2958.52	3311
2957.09	3327.5
2955.66	3335
2954.23	3316.5
2952.8	3329
2951.37	3348.5
2949.94	3335
2948.5	3343.5
2947.07	3351
2945.64	3354.5
2944.21	3380
2942.77	3367
2941.34	3397.5
2939.91	3409.5
2938.47	3410.5
2937.04	3384
2935.6	3460
2934.17	3446
2932.73	3441
2931.29	3464
2929.86	3488
2928.42	3506.5
2926.98	3510.5
2925.55	3522
2924.11	3511.5
2922.67	3528
2921.23	3513
2919.79	3520.5
2918.35	3562.5
2916.91	3523.5
2915.47	3554
2914.03	3550
2912.59	3529.5
2911.15	3592
2909.71	3582
2908.26	3565.5
2906.82	3577
2905.38	3619
2903.94	3618.5
2902.49	3620
2901.05	3589.5
2899.6	3626
2898.16	3630.5
2896.71	3631
2895.27	3647
2893.82	3656.5
2892.38	3671.5
2890.93	3639.5
2889.48	3624.5
2888.03	3673
2886.59	3660.5
2885.14	3673
2883.69	3672
2882.24	3658
2880.79	3674
2879.34	3684
2877.89	3696.5
2876.44	3720.5
2874.99	3732.5
2873.54	3700.5
2872.09	3697.5
2870.64	3683
2869.18	3723.5
2867.73	3701
2866.28	3716
2864.83	3727
2863.37	3747.5
2861.92	3755
2860.46	3747
2859.01	3754
2857.55	3771.5
2856.1	3762
2854.64	3749
2853.19	3746.5
2851.73	3754
2850.27	3750.5
2848.81	3707.5
2847.36	3769.5
2845.9	3724
2844.44	3748
2842.98	3699
2841.52	3726
2840.06	3743
2838.6	3711.5
2837.14	3700
2835.68	3696
2834.22	3679
2832.76	3685.5
2831.3	3674.5
2829.83	3663
2828.37	3666
2826.91	3676.5
2825.44	3641.5
2823.98	3662.5
2822.52	3652
2821.05	3640
2819.59	3610.5
2818.12	3613
2816.66	3620
2815.19	3630
2813.72	3595
2812.26	3599.5
2810.79	3604
2809.32	3606
2807.85	3584.5
2806.38	3576
2804.92	3583
2803.45	3589
2801.98	3621.5
2800.51	3597
2799.04	3590
2797.57	3621.5
2796.1	3564
2794.62	3558.5
2793.15	3567.5
2791.68	3561
2790.21	3567
2788.73	3574
2787.26	3524.5
2785.79	3553.5
2784.31	3570
2782.84	3521.5
2781.36	3534
2779.89	3543
2778.41	3566.5
2776.94	3584.5
2775.46	3576
2773.99	3587.5
2772.51	3577
2771.03	3564.5
2769.55	3558.5
2768.07	3587
2766.6	3562.5
2765.12	3588
2763.64	3574.5
2762.16	3558
2760.68	3545.5
2759.2	3573.5
2757.72	3564.5
2756.24	3547
2754.75	3583
2753.27	3532.5
2751.79	3554
2750.31	3557.5
2748.82	3562
2747.34	3559.5
2745.86	3541
2744.37	3512
2742.89	3536.5
2741.4	3525.5
2739.92	3556.5
2738.43	3521
2736.94	3514
2735.46	3525.5
2733.97	3534.5
2732.48	3519
2731	3549.5
2729.51	3527
2728.02	3538
2726.53	3522
2725.04	3541.5
2723.55	3513
2722.06	3508.5
2720.57	3513
2719.08	3515.5
2717.59	3483.5
2716.1	3499
2714.61	3514.5
2713.11	3527.5
2711.62	3521.5
2710.13	3535
2708.64	3527.5
2707.14	3494.5
2705.65	3510.5
2704.15	3503.5
2702.66	3495
2701.16	3469
2699.67	3447.5
2698.17	3449
2696.67	3473
2695.18	3454.5
2693.68	3459.5
2692.18	3463
2690.69	3472.5
2689.19	3450.5
2687.69	3440.5
2686.19	3466.5
2684.69	3443
2683.19	3441
2681.69	3423
2680.19	3404.5
2678.69	3406
2677.19	3405.5
2675.68	3386.5
2674.18	3441
2672.68	3402.5
2671.18	3408
2669.67	3410
2668.17	3374.5
2666.66	3374
2665.16	3389
2663.66	3376.5
2662.15	3358
2660.64	3355.5
2659.14	3389
2657.63	3338.5
2656.13	3356.5
2654.62	3329
2653.11	3319
2651.6	3328.5
2650.09	3374
2648.58	3360
2647.08	3298.5
2645.57	3324.5
2644.06	3329
2642.55	3339
2641.04	3311.5
2639.52	3307
2638.01	3307.5
2636.5	3295
2634.99	3287
2633.48	3261
2631.96	3268
2630.45	3244.5
2628.94	3225
2627.42	3252.5
2625.91	3246
2624.39	3250
2622.88	3215.5
2621.36	3251
2619.85	3206.5
2618.33	3230.5
2616.81	3228.5
2615.3	3227
2613.78	3213.5
2612.26	3200.5
2610.74	3198
2609.22	3193.5
2607.7	3162.5
2606.18	3163
2604.66	3155
2603.14	3144.5
2601.62	3104
2600.1	3093
2598.58	3105
2597.06	3074
2595.54	3075.5
2594.01	3091
2592.49	3071
2590.97	3075.5
2589.44	3073
2587.92	3056.5
2586.39	3083.5
2584.87	3109.5
2583.34	3045
2581.82	3093.5
2580.29	3041.5
2578.76	3067
2577.24	3050
2575.71	3049.5
2574.18	3029
2572.65	3017
2571.13	3038
2569.6	3030
2568.07	3049
2566.54	3010
2565.01	3034.5
2563.48	3034
2561.95	3017.5
2560.42	3004
2558.88	2995
2557.35	2962
2555.82	2978
2554.29	2948
2552.75	2958.5
2551.22	2944.5
2549.69	2916
2548.15	2944.5
2546.62	2918
2545.08	2935.5
2543.55	2934.5
2542.01	2915.5
2540.47	2893.5
2538.94	2909.5
2537.4	2906.5
2535.86	2892
2534.33	2865
2532.79	2872
2531.25	2873
2529.71	2814
2528.17	2879
2526.63	2821
2525.09	2828
2523.55	2792
2522.01	2808
2520.47	2797
2518.92	2791
2517.38	2804
2515.84	2803.5
2514.3	2777
2512.75	2776.5
2511.21	2762.5
2509.67	2753.5
2508.12	2748.5
2506.58	2741
2505.03	2728
2503.49	2726.5
2501.94	2702.5
2500.39	2710
2498.85	2686.5
2497.3	2682
2495.75	2657.5
2494.2	2672
2492.65	2653
2491.11	2658.5
2489.56	2646
2488.01	2651.5
2486.46	2624.5
2484.91	2608.5
2483.36	2595.5
2481.8	2620
2480.25	2621
2478.7	2603
2477.15	2596
2475.6	2575.5
2474.04	2557
2472.49	2551
2470.93	2518
2469.38	2521
2467.83	2511
2466.27	2506
2464.71	2491.5
2463.16	2489.5
2461.6	2457.5
2460.05	2446
2458.49	2467
2456.93	2471.5
2455.37	2451.5
2453.81	2451
2452.26	2437
2450.7	2417.5
2449.14	2397.5
2447.58	2391
2446.02	2377.5
2444.46	2393
2442.9	2368
2441.33	2375.5
2439.77	2379
2438.21	2369
2436.65	2377.5
2435.08	2354.5
2433.52	2354
2431.96	2338
2430.39	2344
2428.83	2298
2427.26	2317.5
2425.7	2311.5
2424.13	2322.5
2422.56	2313
2421	2288.5
2419.43	2292.5
2417.86	2285.5
2416.3	2303.5
2414.73	2263.5
2413.16	2267.5
2411.59	2249.5
2410.02	2269
2408.45	2270
2406.88	2298.5
2405.31	2255.5
2403.74	2276
2402.17	2264.5
2400.6	2254.5
2399.02	2209.5
2397.45	2223.5
2395.88	2228.5
2394.3	2229.5
2392.73	2205.5
2391.16	2209.5
2389.58	2218
2388.01	2216
2386.43	2205.5
2384.86	2198
2383.28	2205
2381.7	2202.5
2380.13	2205
2378.55	2192.5
2376.97	2167
2375.39	2166
2373.81	2172
2372.23	2147
2370.65	2170
2369.07	2170.5
2367.49	2166.5
2365.91	2153
2364.33	2139.5
2362.75	2139.5
2361.17	2104.5
2359.59	2097
2358.01	2102
2356.42	2101.5
2354.84	2115.5
2353.25	2110
2351.67	2092
2350.09	2102
2348.5	2100
2346.92	2109
2345.33	2101.5
2343.74	2104.5
2342.16	2089
2340.57	2089
2338.98	2061.5
2337.39	2064
2335.81	2071
2334.22	2064.5
2332.63	2075.5
2331.04	2077.5
2329.45	2055
2327.86	2075
2326.27	2037
2324.68	2040
2323.09	2043
2321.49	2035.5
2319.9	2011
2318.31	2000.5
2316.72	2008.5
2315.12	1999
2313.53	1977.5
2311.93	1961.5
2310.34	1979.5
2308.74	1964.5
2307.15	1965.5
2305.55	1957
2303.96	1941
2302.36	1922
2300.76	1911.5
2299.17	1918
2297.57	1919
2295.97	1900
2294.37	1900.5
2292.77	1891.5
2291.17	1878.5
2289.57	1865.5
2287.97	1883
2286.37	1863
2284.77	1844
2283.17	1870.5
2281.57	1862
2279.96	1847.5
2278.36	1838
2276.76	1840
2275.15	1826
2273.55	1842
2271.95	1818.5
2270.34	1820.5
2268.74	1805.5
2267.13	1801.5
2265.52	1801.5
2263.92	1801.5
2262.31	1773
2260.7	1771.5
2259.1	1768.5
2257.49	1771.5
2255.88	1750.5
2254.27	1751
2252.66	1760
2251.05	1734
2249.44	1750
2247.83	1757
2246.22	1730
2244.61	1731.5
2243	1723.5
2241.39	1746.5
2239.77	1729.5
2238.16	1726
2236.55	1697.5
2234.93	1707.5
2233.32	1681
2231.7	1705.5
2230.09	1686
2228.47	1687
2226.86	1671.5
2225.24	1679
2223.63	1682
2222.01	1671.5
2220.39	1667
2218.77	1638
2217.16	1632
2215.54	1635.5
2213.92	1617
2212.3	1620
2210.68	1602.5
2209.06	1607
2207.44	1579
2205.82	1591
2204.19	1580
2202.57	1588.5
2200.95	1575.5
2199.33	1576.5
2197.7	1569.5
2196.08	1561.5
2194.46	1576.5
2192.83	1549
2191.21	1538
2189.58	1548
2187.96	1560.5
2186.33	1525
2184.7	1536
2183.08	1528
2181.45	1516.5
2179.82	1532
2178.19	1499.5
2176.57	1502
2174.94	1496.5
2173.31	1491.5
2171.68	1470
2170.05	1482.5
2168.42	1483
2166.79	1484
2165.16	1449
2163.52	1486
2161.89	1457.5
2160.26	1465
2158.63	1442.5
2156.99	1443.5
2155.36	1426
2153.73	1426
2152.09	1428
2150.46	1431
2148.82	1414
2147.18	1404.5
2145.55	1411.5
2143.91	1396
2142.27	1401
2140.64	1370
2139	1383.5
2137.36	1376
2135.72	1379.5
2134.08	1364.5
2132.44	1346.5
2130.8	1352.5
2129.16	1337.5
2127.52	1339.5
2125.88	1314
2124.24	1305
2122.6	1302
2120.95	1292.5
2119.31	1299.5
2117.67	1270.5
2116.02	1278
2114.38	1307
2112.74	1286.5
2111.09	1279.5
2109.45	1267
2107.8	1264.5
2106.15	1264
2104.51	1255
2102.86	1253
2101.21	1246
2099.56	1242.5
2097.92	1238
2096.27	1235.5
2094.62	1217
2092.97	1236
2091.32	1236
2089.67	1247
2088.02	1234.5
2086.37	1224.5
2084.72	1227.5
2083.06	1228
2081.41	1201
2079.76	1217.5
2078.1	1215.5
2076.45	1212
2074.8	1210.5
2073.14	1209
2071.49	1205.5
2069.83	1187.5
2068.18	1173
2066.52	1181
2064.86	1181.5
2063.21	1172.5
2061.55	1184.5
2059.89	1168.5
2058.23	1176
2056.57	1169
2054.92	1168.5
2053.26	1144.5
2051.6	1163
2049.94	1160.5
2048.27	1142
2046.61	1147
2044.95	1136.5
2043.29	1137.5
2041.63	1115
2039.97	1145.5
2038.3	1113
2036.64	1096.5
2034.97	1112.5
2033.31	1113.5
2031.64	1095.5
2029.98	1105
2028.31	1069
2026.65	1076
2024.98	1073.5
2023.31	1065
2021.65	1074.5
2019.98	1059.5
2018.31	1046
2016.64	1063.5
2014.97	1057
2013.3	1059.5
2011.63	1059.5
2009.96	1052.5
2008.29	1045.5
2006.62	1029
2004.95	1017
2003.28	1023.5
2001.6	1028
1999.93	1008
1998.26	1028.5
1996.58	1027
1994.91	1008.5
1993.24	1013
1991.56	1012.5
1989.89	1002
1988.21	988
1986.53	996
1984.86	987
1983.18	981
1981.5	981
1979.82	974
1978.15	972
1976.47	982.5
1974.79	976
1973.11	960.5
1971.43	964.5
1969.75	937
1968.07	960.5
1966.38	943.5
1964.7	940
1963.02	944
1961.34	941
1959.66	927.5
1957.97	909
1956.29	914.5
1954.6	918.5
1952.92	916
1951.23	908.5
1949.55	915.5
1947.86	892
1946.18	879.5
1944.49	876
1942.8	870
1941.11	879
1939.43	873
1937.74	878
1936.05	889
1934.36	866.5
1932.67	859
1930.98	873
1929.29	848
1927.6	855.5
1925.91	840.5
1924.21	838
1922.52	835
1920.83	830
1919.14	833
1917.44	830
1915.75	824
1914.05	831.5
1912.36	827
1910.66	818.5
1908.97	802
1907.27	791
1905.58	807
1903.88	799.5
1902.18	803
1900.48	798
1898.79	807.5
1897.09	791
1895.39	787.5
1893.69	789
1891.99	775
1890.29	785
1888.59	774
1886.89	760.5
1885.18	764.5
1883.48	765.5
1881.78	761.5
1880.08	748.5
1878.37	740
1876.67	738.5
1874.96	742
1873.26	725
1871.55	725
1869.85	726
1868.14	721.5
1866.44	719.5
1864.73	711.5
1863.02	715
1861.32	702
1859.61	725.5
1857.9	705.5
1856.19	689.5
1854.48	695.5
1852.77	697.5
1851.06	702.5
1849.35	688
1847.64	682
1845.93	694
1844.21	694
1842.5	679.5
1840.79	679
1839.08	680.5
1837.36	681.5
1835.65	674.5
1833.93	648.5
1832.22	670
1830.5	640
1828.79	662.5
1827.07	660.5
1825.36	648.5
1823.64	632
1821.92	645.5
1820.2	644
1818.48	649
1816.77	633
1815.05	635.5
1813.33	625.5
1811.61	643
1809.89	623
1808.16	639
1806.44	615
1804.72	610.5
1803	611
1801.28	623
1799.55	598.5
1797.83	598
1796.11	598.5
1794.38	590
1792.66	594
1790.93	587
1789.21	588.5
1787.48	589
1785.75	578
1784.03	582.5
1782.3	583.5
1780.57	590
1778.84	577
1777.11	576
1775.38	573.5
1773.66	571.5
1771.93	567
1770.19	557
1768.46	562
1766.73	573
1765	572
1763.27	566.5
1761.54	572
1759.8	564
1758.07	590.5
1756.34	590.5
1754.6	587.5
1752.87	584.5
1751.13	598.5
1749.4	584.5
1747.66	600
1745.92	586.5
1744.19	594.5
1742.45	592.5
1740.71	573
1738.97	576.5
1737.23	565.5
1735.49	561.5
1733.75	548
1732.01	542
1730.27	539.5
1728.53	531.5
1726.79	536
1725.05	534
1723.31	528
1721.57	523.5
1719.82	529.5
1718.08	521
1716.34	511.5
1714.59	498
1712.85	498.5
1711.1	491
1709.36	500
1707.61	489
1705.86	491.5
1704.12	505.5
1702.37	495.5
1700.62	489.5
1698.87	494.5
1697.12	493.5
1695.37	464
1693.62	467.5
1691.87	470
1690.12	474.5
1688.37	481.5
1686.62	464
1684.87	477.5
1683.12	476.5
1681.36	474.5
1679.61	487.5
1677.86	476
1676.1	469
1674.35	488
1672.59	490
1670.84	488
1669.08	509.5
1667.33	511.5
1665.57	532.5
1663.81	542
1662.06	573.5
1660.3	595.5
1658.54	609
1656.78	597.5
1655.02	584.5
1653.26	555.5
1651.5	545
1649.74	528.5
1647.98	526
1646.22	481
1644.46	483
1642.7	474.5
1640.93	463.5
1639.17	453.5
1637.41	438
1635.64	444
1633.88	429
1632.11	425
1630.35	417.5
1628.58	429.5
1626.81	416.5
1625.05	428.5
1623.28	412
1621.51	423
1619.75	407
1617.98	402
1616.21	402.5
1614.44	401.5
1612.67	390.5
1610.9	394.5
1609.13	403
1607.36	394
1605.58	395.5
1603.81	402.5
1602.04	402
1600.27	397.5
1598.49	381.5
1596.72	396
1594.95	392
1593.17	385.5
1591.4	372
1589.62	381.5
1587.84	381.5
1586.07	393
1584.29	379.5
1582.51	389
1580.74	391
1578.96	367.5
1577.18	378
1575.4	366.5
1573.62	364
1571.84	368.5
1570.06	358.5
1568.28	354.5
1566.5	361
1564.72	368
1562.93	368.5
1561.15	363.5
1559.37	365.5
1557.58	365
1555.8	362.5
1554.02	345
1552.23	351.5
1550.45	346
1548.66	349
1546.87	344
1545.09	352
1543.3	339
1541.51	340
1539.72	359.5
1537.94	336.5
1536.15	345
1534.36	351.5
1532.57	338.5
1530.78	333.5
1528.99	334.5
1527.2	334.5
1525.4	339.5
1523.61	338.5
1521.82	340
1520.03	334.5
1518.23	340.5
1516.44	334
1514.65	334
1512.85	326
1511.06	328
1509.26	328
1507.46	333
1505.67	340
1503.87	330.5
1502.07	346.5
1500.28	344
1498.48	339
1496.68	338
1494.88	335.5
1493.08	335
1491.28	335
1489.48	339.5
1487.68	349.5
1485.88	348.5
1484.08	355
1482.27	368
1480.47	364
1478.67	391.5
1476.86	395
1475.06	405
1473.25	418.5
1471.45	446.5
1469.64	457
1467.84	472.5
1466.03	498.5
1464.23	521
1462.42	558
1460.61	572.5
1458.8	585
1456.99	608
1455.18	607.5
1453.37	634.5
1451.56	622
1449.75	659.5
1447.94	667
1446.13	708.5
1444.32	707
1442.51	714.5
1440.7	724
1438.88	705
1437.07	671
1435.26	635
1433.44	574.5
1431.63	522.5
1429.81	475
1427.99	443
1426.18	397
1424.36	382.5
1422.54	383
1420.73	369
1418.91	373
1417.09	361
1415.27	335
1413.45	330.5
1411.63	326.5
1409.81	327.5
1407.99	308.5
1406.17	306.5
1404.35	297.5
1402.53	302.5
1400.7	292
1398.88	289
1397.06	285.5
1395.23	292
1393.41	285
1391.58	281.5
1389.76	279
1387.93	270.5
1386.11	281
1384.28	271
1382.45	275.5
1380.62	282.5
1378.8	287.5
1376.97	293
1375.14	297
1373.31	281
1371.48	299
1369.65	294.5
1367.82	296.5
1365.99	285
1364.16	277
1362.32	280.5
1360.49	293.5
1358.66	273.5
1356.82	281.5
1354.99	288.5
1353.16	281.5
1351.32	287.5
1349.48	273
1347.65	284
1345.81	287.5
1343.98	275
1342.14	280.5
1340.3	283.5
1338.46	289
1336.62	287
1334.79	303
1332.95	303
1331.11	311.5
1329.27	311
1327.42	326.5
1325.58	337
1323.74	346
1321.9	353.5
1320.06	377
1318.21	388
1316.37	399
1314.53	432.5
1312.68	445
1310.84	480
1308.99	489
1307.15	508.5
1305.3	510
1303.45	524
1301.61	538.5
1299.76	518.5
1297.91	490.5
1296.06	483.5
1294.21	452
1292.36	422
1290.51	408
1288.66	395.5
1286.81	383.5
1284.96	367.5
1283.11	368
1281.26	371.5
1279.4	357
1277.55	359
1275.7	363.5
1273.84	366.5
1271.99	380
1270.13	377.5
1268.28	376
1266.42	386
1264.56	363
1262.71	356
1260.85	352
1258.99	352.5
1257.13	336.5
1255.27	321
1253.41	315
1251.56	308
1249.7	306.5
1247.83	288.5
1245.97	286.5
1244.11	276.5
1242.25	280
1240.39	270.5
1238.52	254.5
1236.66	254.5
1234.8	243
1232.93	236
1231.07	240
1229.2	249
1227.34	243.5
1225.47	240
1223.6	236.5
1221.74	235.5
1219.87	236.5
1218	217.5
1216.13	224
1214.26	222
1212.39	209.5
1210.53	222
1208.65	212
1206.78	226
1204.91	225.5
1203.04	233
1201.17	226
1199.3	214.5
1197.42	218.5
1195.55	218.5
1193.68	212.5
1191.8	203
1189.93	211
1188.05	213
1186.17	213
1184.3	215.5
1182.42	216
1180.54	222
1178.67	212
1176.79	212.5
1174.91	213.5
1173.03	206.5
1171.15	214
1169.27	212.5
1167.39	211
1165.51	210
1163.63	206.5
1161.75	217.5
1159.86	210
1157.98	207.5
1156.1	205
1154.21	214
1152.33	215.5
1150.44	212
1148.56	213
1146.67	219.5
1144.79	213.5
1142.9	213
1141.01	219
1139.12	220.5
1137.24	225.5
1135.35	231.5
1133.46	231
1131.57	264
1129.68	263
1127.79	272.5
1125.9	274
1124.01	271.5
1122.12	279.5
1120.22	279
1118.33	273
1116.44	277.5
1114.54	260
1112.65	266
1110.75	260.5
1108.86	263.5
1106.96	271.5
1105.07	278
1103.17	280
1101.27	297
1099.38	306
1097.48	321.5
1095.58	344
1093.68	347
1091.78	361.5
1089.88	364.5
1087.98	375
1086.08	366
1084.18	380.5
1082.28	391
1080.38	381.5
1078.47	389.5
1076.57	383.5
1074.67	375
1072.76	371
1070.86	364
1068.95	367
1067.05	368.5
1065.14	366
1063.24	361
1061.33	346
1059.42	334
1057.51	312.5
1055.6	311
1053.7	301
1051.79	285
1049.88	289
1047.97	267.5
1046.06	285
1044.14	270.5
1042.23	269
1040.32	276
1038.41	264.5
1036.5	274
1034.58	266.5
1032.67	278
1030.75	256.5
1028.84	272.5
1026.92	265.5
1025.01	267
1023.09	261
1021.17	265
1019.26	254.5
1017.34	258.5
1015.42	255.5
1013.5	259.5
1011.58	259
1009.66	249.5
1007.74	246
1005.82	252
1003.9	253.5
1001.98	257.5
1000.06	248
998.134	237
996.212	236
994.288	257.5
992.364	255
990.44	259
988.515	272
986.589	273.5
984.663	289
982.737	293
980.81	306
978.883	312.5
976.955	328.5
975.027	320.5
973.098	325
971.169	315
969.239	322
967.308	327.5
965.378	321
963.447	322
961.516	325.5
959.583	314
957.65	329.5
955.718	319.5
953.784	315.5
951.85	335
949.916	329
947.981	346
946.045	344
944.109	354
942.173	344.5
940.236	349.5
938.298	351
936.36	359
934.422	328.5
932.484	323.5
930.544	311
928.604	293.5
926.664	299
924.724	305
922.782	308
920.84	297
918.898	298
916.955	294
915.012	299
913.068	296
911.124	288.5
909.18	294
907.235	293.5
905.289	290.5
903.343	292
901.397	306
899.45	318
897.502	311
895.554	317
893.605	322.5
891.657	332
889.707	327
887.758	324.5
885.807	321.5
883.856	331
881.905	331
879.953	339
878.001	351.5
876.048	341.5
874.094	342
872.14	348.5
870.186	347
868.232	340
866.276	345.5
864.321	328.5
862.365	338
860.408	335
858.451	328.5
856.493	331
854.535	334
852.576	339
850.617	326.5
848.658	336.5
846.698	324.5
844.737	320
842.776	313.5
840.814	306
838.852	306
836.89	299
834.927	298.5
832.963	302.5
830.999	279.5
829.035	272
827.07	264
825.105	263.5
823.139	248.5
821.172	252.5
819.206	241
817.238	241.5
815.27	231
813.301	233
811.333	231
809.363	221
807.394	221
805.424	210.5
803.453	201.5
801.482	199
799.509	196.5
797.538	181.5
795.565	184
793.592	171.5
791.618	186
789.643	193.5
787.669	177.5
785.693	179
783.718	184.5
781.742	176
779.765	176
777.788	176.5
775.811	175
773.832	181.5
771.853	178.5
769.875	180
767.895	184.5
765.915	179
763.934	177.5
761.953	180
759.972	175.5
757.99	176
756.007	166.5
754.024	168
752.041	170
750.056	170.5
748.072	165
746.087	179
744.102	173.5
742.116	177.5
740.13	185.5
738.143	177
736.155	177
734.167	178.5
732.179	176
730.19	178
728.2	174.5
726.21	178.5
724.22	176.5
722.229	182.5
720.237	185
718.246	178.5
716.253	174
714.26	177
712.267	163.5
710.273	165.5
708.279	167
706.284	155
704.289	153
702.293	157.5
700.296	153.5
698.3	154
696.303	150.5
694.305	148.5
692.307	164
690.307	156.5
688.308	160
686.309	159.5
684.308	163.5
682.308	148
680.306	161.5
678.304	149
676.302	149
674.3	159.5
672.296	162
670.293	167
668.289	162.5
666.284	166.5
664.278	162.5
662.273	161
660.266	158.5
658.26	167.5
656.252	150
654.244	153.5
652.237	165
650.227	171.5
648.218	173.5
646.209	165
644.198	169
642.188	168
640.177	170
638.165	166
636.153	176.5
634.14	168
632.128	164
630.113	171.5
628.099	177
626.085	183
624.07	197
622.054	186
620.038	181
618.021	180.5
616.004	177
613.986	183.5
611.968	176
609.949	188
607.93	185.5
605.911	194
603.891	189
601.87	181.5
599.848	185.5
597.827	194.5
595.805	187.5
593.782	180
591.759	177
589.735	171
587.711	179.5
585.687	176
583.661	182
581.636	181
579.609	185.5
577.583	183
575.555	175.5
573.527	178
571.5	159.5
569.471	171
567.441	166
565.412	170.5
563.382	178.5
561.351	187.5
559.32	195
557.289	188
555.257	202.5
553.223	203
551.19	210
549.157	209
547.122	218
545.088	217.5
543.053	236.5
541.017	246
538.981	280
536.943	317.5
534.907	393.5
532.869	493.5
530.831	661
528.792	978
526.752	1507.5
524.713	2172
522.673	2638.5
520.632	2636
518.591	2153.5
516.549	1550.5
514.507	1083
512.464	740
510.42	518
508.377	387
506.332	332.5
504.288	298
502.242	284.5
500.196	256.5
498.15	246
496.104	245
494.056	237.5
492.008	239
489.96	234.5
487.911	234.5
485.862	233.5
483.812	229.5
481.761	219
479.71	221.5
477.659	214
475.607	214
473.555	213.5
471.502	214.5
469.448	201.5
467.395	217.5
465.34	230
463.285	215
461.23	225.5
459.174	222
457.118	220.5
455.061	222.5
453.003	216
450.945	217
448.887	219.5
446.828	233.5
444.768	217.5
442.708	220.5
440.647	218
438.587	233.5
436.525	240.5
434.463	238.5
432.4	236
430.337	236
428.274	240.5
426.21	244.5
424.145	231.5
422.079	234.5
420.014	239
417.948	255
415.882	259.5
413.814	251
411.746	266.5
409.679	259.5
407.609	258.5
405.54	253.5
403.47	251
401.401	237.5
399.329	250.5
397.258	252.5
395.187	257.5
393.114	255.5
391.041	267
388.968	267.5
386.895	260
384.82	257.5
382.745	265
380.67	259
378.594	247.5
376.517	257
374.44	259
372.363	261.5
370.286	274.5
368.207	279.5
366.128	286
364.049	280.5
361.969	280
359.888	283
357.807	278.5
355.725	281.5
353.643	278
351.561	279.5
349.477	274
347.394	291
345.31	287
343.226	285.5
341.141	294
339.055	301
336.968	295
334.882	298
332.795	305.5
330.707	299.5
328.618	302.5
326.53	314.5
324.44	340.5
322.351	324
320.26	342.5
318.17	344
316.078	361.5
313.987	361
311.895	393.5
309.802	392.5
307.708	406.5
305.614	410
303.52	408.5
301.425	403.5
299.329	414.5
297.233	408
295.137	393
293.039	385
290.942	400
288.844	379.5
286.745	368
284.647	371.5
282.546	384
280.446	376
278.346	385.5
276.245	376.5
274.143	382
272.041	392
269.939	392
267.835	407.5
265.731	410.5
263.627	417.5
261.522	407
259.417	408
257.311	421
255.204	411.5
253.098	423.5
250.99	438
248.882	444.5
246.774	459
244.664	459
242.555	458.5
240.445	466.5
238.334	468.5
236.223	475
234.112	476
232	486
229.888	501
227.775	489
225.661	507.5
223.546	503
221.431	522
219.316	500
217.201	514
215.084	525
212.967	511
210.85	507
208.732	514
206.614	518
204.495	522
202.375	527.5
200.256	526
198.135	516.5
196.014	516
193.893	536
191.771	529.5
189.648	521.5
187.525	520
185.401	523.5
183.277	530
181.152	536
179.027	529.5
176.901	528
174.775	548
172.648	557
170.521	557
168.393	560
166.265	570.5
164.136	577
162.007	570
159.876	593
157.746	592
155.615	612.5
153.483	633.5
151.351	636
149.219	655.5
147.086	670.5
144.952	685.5
142.818	702
140.684	721
138.548	735.5
136.413	758
134.276	775
132.139	808.5
130.002	808
127.864	860.5
125.725	875
123.587	919.5
121.447	955
119.307	982
117.166	1002.5
115.026	1041.5
112.885	1053.5
110.743	1102
108.6	1145
106.456	1153
104.313	1183
102.169	1148
100.023	1110.5
97.8789	1039.5
95.7328	924
93.5869	830.5
91.4392	699
89.2919	560.5
87.1447	454.5
84.9959	344.5
