3528.51	136
3527.23	139.5
3525.95	139.5
3524.67	146
3523.39	149.5
3522.1	156
3520.82	155
3519.54	161
3518.26	162
3516.97	162.5
3515.69	153
3514.4	161
3513.12	159
3511.84	159
3510.55	162.5
3509.26	173
3507.98	172.5
3506.69	158.5
3505.41	170
3504.12	167
3502.83	170
3501.54	169.5
3500.26	180
3498.97	176
3497.68	183
3496.39	185
3495.1	176.5
3493.81	187.5
3492.52	188.5
3491.23	196
3489.94	199.5
3488.65	203.5
3487.36	199
3486.07	204
3484.78	206
3483.49	205.5
3482.19	217
3480.9	219
3479.61	211
3478.31	213.5
3477.02	215
3475.73	229
3474.43	233
3473.14	221.5
3471.84	229.5
3470.54	236
3469.25	233
3467.95	229.5
3466.66	238.5
3465.36	223
3464.06	237.5
3462.76	227.5
3461.46	244
3460.17	245.5
3458.87	247
3457.57	249.5
3456.27	246
3454.97	253.5
3453.67	259.5
3452.37	248
3451.07	253.5
3449.77	259.5
3448.47	256.5
3447.16	255
3445.86	264.5
3444.56	272
3443.26	277.5
3441.95	287
3440.65	293.5
3439.35	301
3438.04	307.5
3436.74	294
3435.43	296
3434.13	300
3432.82	317.5
3431.52	324
3430.21	336.5
3428.9	326
3427.6	340.5
3426.29	340
3424.98	336
3423.67	352
3422.36	351
3421.06	365
3419.75	368
3418.44	366
3417.13	367.5
3415.82	362.5
3414.51	371
3413.2	375.5
3411.88	380
3410.57	401
3409.26	394
3407.95	397.5
3406.64	389.5
3405.32	402
3404.01	395
3402.7	418.5
3401.38	404.5
3400.07	409
3398.75	417
3397.44	420.5
3396.12	427
3394.81	429
3393.49	423
3392.18	438.5
3390.86	437
3389.54	435.5
3388.23	439
3386.91	445
3385.59	452
3384.27	456.5
3382.95	465.5
3381.63	454.5
3380.31	486.5
3378.99	481
3377.67	484
3376.35	482
3375.03	489
3373.71	491
3372.39	485.5
3371.07	483.5
3369.75	496.5
3368.42	502
3367.1	513
3365.78	517
3364.45	511.5
3363.13	542.5
3361.81	518
3360.48	523.5
3359.16	517
3357.83	540.5
3356.51	533
3355.18	545
3353.85	534.5
3352.53	551.5
3351.2	549
3349.87	545
3348.54	557
3347.22	554
3345.89	561
3344.56	551
3343.23	550.5
3341.9	544
3340.57	555.5
3339.24	551
3337.91	575
3336.58	557.5
3335.25	565
3333.92	565
3332.58	576
3331.25	570.5
3329.92	593
3328.59	575.5
3327.25	586
3325.92	590
3324.58	581
3323.25	587
3321.92	602
3320.58	603
3319.25	614
3317.91	611.5
3316.57	628
3315.24	616.5
3313.9	619.5
3312.56	605
3311.23	620.5
3309.89	623.5
3308.55	630.5
3307.21	638
3305.87	633.5
3304.53	642
3303.19	641
3301.85	644
3300.51	631.5
3299.17	650
3297.83	642.5
3296.49	650.5
3295.15	653
3293.81	651
3292.46	671.5
3291.12	656.5
3289.78	673
3288.43	670
3287.09	673
3285.75	679
3284.4	671
3283.06	687.5
3281.71	674.5
3280.37	685
3279.02	688.5
3277.67	689
3276.33	695.5
3274.98	699
3273.63	711
3272.28	718.5
3270.94	727
3269.59	713
3268.24	732.5
3266.89	733.5
3265.54	738
3264.19	757
3262.84	776
3261.49	782
3260.14	799.5
3258.79	798.5
3257.44	834.5
3256.08	853
3254.73	855
3253.38	879
3252.03	883.5
3250.67	923
3249.32	921
3247.96	949
3246.61	978
3245.26	994.5
3243.9	1026
3242.54	1065.5
3241.19	1074
3239.83	1108.5
3238.48	1148
3237.12	1163.5
3235.76	1205
3234.41	1206
3233.05	1240
3231.69	1271
3230.33	1300.5
3228.97	1323.5
3227.61	1350.5
3226.25	1387
3224.89	1391
3223.53	1415
3222.17	1437
3220.81	1444.5
3219.45	1470.5
3218.09	1492.5
3216.72	1479.5
3215.36	1506.5
3214	1523
3212.63	1546.5
3211.27	1563.5
3209.91	1561.5
3208.54	1545
3207.18	1567
3205.81	1595.5
3204.45	1613.5
3203.08	1614
3201.71	1626.5
3200.35	1624.5
3198.98	1642
3197.61	1656.5
3196.25	1650
3194.88	1655
3193.51	1692.5
3192.14	1670.5
3190.77	1663
3189.4	1693
3188.03	1697.5
3186.66	1720
3185.29	1718.5
3183.92	1732.5
3182.55	1741
3181.18	1716
3179.81	1754.5
3178.44	1777
3177.06	1780
3175.69	1792.5
3174.32	1788
3172.94	1791.5
3171.57	1803.5
3170.2	1850
3168.82	1840.5
3167.45	1865
3166.07	1870
3164.69	1898
3163.32	1889
3161.94	1925
3160.56	1909.5
3159.19	1950
3157.81	1965
3156.43	1976
3155.05	1977
3153.67	2001
3152.3	2035.5
3150.92	2013.5
3149.54	2041.5
3148.16	2056.5
3146.78	2080.5
3145.4	2084.5
3144.01	2062
3142.63	2117
3141.25	2111
3139.87	2138
3138.49	2128.5
3137.1	2173
3135.72	2183
3134.34	2194
3132.95	2207.5
3131.57	2243.5
3130.18	2257
3128.8	2241
3127.41	2285
3126.03	2279
3124.64	2289
3123.25	2330
3121.87	2334
3120.48	2310.5
3119.09	2367.5
3117.7	2356.5
3116.32	2354.5
3114.93	2353
3113.54	2404
3112.15	2434
3110.76	2428
3109.37	2409
3107.98	2442.5
3106.59	2454.5
3105.2	2450.5
3103.8	2465.5
3102.41	2474
3101.02	2488
3099.63	2504.5
3098.23	2477
3096.84	2510.5
3095.45	2526.5
3094.05	2550
3092.66	2544
3091.26	2521
3089.87	2558.5
3088.47	2558.5
3087.08	2564.5
3085.68	2572
3084.28	2586
3082.89	2586
3081.49	2596.5
3080.09	2597.5
3078.69	2607.5
3077.3	2596
3075.9	2606
3074.5	2603.5
3073.1	2607
3071.7	2633.5
3070.3	2654
3068.9	2629
3067.5	2671.5
3066.09	2652
3064.69	2652.5
3063.29	2639.5
3061.89	2698.5
3060.48	2682.5
3059.08	2680.5
3057.68	2694.5
3056.27	2712.5
3054.87	2734
3053.46	2737.5
3052.06	2750.5
3050.65	2734
3049.25	2773
3047.84	2769
3046.44	2751
3045.03	2767.5
3043.62	2802
3042.21	2803.5
3040.81	2844.5
3039.4	2833.5
3037.99	2833
3036.58	2839
3035.17	2847
3033.76	2861
3032.35	2874
3030.94	2875
3029.53	2905
3028.12	2877
3026.71	2872
3025.29	2859.5
3023.88	2880
3022.47	2895
3021.06	2899.5
3019.64	2883
3018.23	2914.5
3016.82	2941.5
3015.4	2916.5
3013.99	2936.5
3012.57	2934
3011.15	2931
3009.74	2921
3008.32	2965
3006.91	2966
3005.49	2968
3004.07	2980.5
3002.65	2976.5
3001.24	3027.5
2999.82	3029
2998.4	3007
2996.98	3049.5
2995.56	3049
2994.14	3061
2992.72	3068
2991.3	3128.5
2989.88	3095.5
2988.46	3146
2987.03	3149.5
2985.61	3155
2984.19	3171.5
2982.77	3210
2981.34	3203
2979.92	3234
2978.49	3256.5
2977.07	3309
2975.65	3263.5
2974.22	3268
2972.79	3318
2971.37	3325.5
2969.94	3331
2968.52	3339.5
2967.09	3336
2965.66	3337
2964.23	3370
2962.81	3377
2961.38	3365
2959.95	3425
2958.52	3401
2957.09	3420
2955.66	3440
2954.23	3431
2952.8	3442
2951.37	3423
2949.94	3446.5
2948.5	3446.5
2947.07	3440
2945.64	3464
2944.21	3496.5
2942.77	3510.5
2941.34	3504
2939.91	3533
2938.47	3514.5
2937.04	3538.5
2935.6	3538.5
2934.17	3576.5
2932.73	3540
2931.29	3563.5
2929.86	3597
2928.42	3607.5
2926.98	3607.5
2925.55	3607.5
2924.11	3666.5
2922.67	3650
2921.23	3635.5
2919.79	3663
2918.35	3641.5
2916.91	3641
2915.47	3662.5
2914.03	3661
2912.59	3656
2911.15	3670
2909.71	3691
2908.26	3658.5
2906.82	3678
2905.38	3703
2903.94	3732
2902.49	3735.5
2901.05	3742
2899.6	3734.5
2898.16	3722.5
2896.71	3735
2895.27	3743
2893.82	3753
2892.38	3745.5
2890.93	3790
2889.48	3755
2888.03	3786
2886.59	3739
2885.14	3787
2883.69	3785.5
2882.24	3789.5
2880.79	3809.5
2879.34	3803
2877.89	3820.5
2876.44	3808
2874.99	3797.5
2873.54	3822.5
2872.09	3834.5
2870.64	3840
2869.18	3833.5
2867.73	3784.5
2866.28	3839
2864.83	3822
2863.37	3864.5
2861.92	3826
2860.46	3853.5
2859.01	3847.5
2857.55	3875
2856.1	3883
2854.64	3861
2853.19	3878
2851.73	3881
2850.27	3882
2848.81	3868
2847.36	3857
2845.9	3865.5
2844.44	3830.5
2842.98	3875
2841.52	3839
2840.06	3843
2838.6	3823.5
2837.14	3831.5
2835.68	3787.5
2834.22	3794.5
2832.76	3784.5
2831.3	3812.5
2829.83	3780.5
2828.37	3786
2826.91	3806.5
2825.44	3745.5
2823.98	3774
2822.52	3773.5
2821.05	3728.5
2819.59	3750
2818.12	3788.5
2816.66	3744
2815.19	3729.5
2813.72	3734
2812.26	3743
2810.79	3735
2809.32	3704.5
2807.85	3718.5
2806.38	3702.5
2804.92	3709
2803.45	3700.5
2801.98	3692
2800.51	3715
2799.04	3701
2797.57	3665.5
2796.1	3683.5
2794.62	3673.5
2793.15	3664.5
2791.68	3690
2790.21	3684
2788.73	3656
2787.26	3678
2785.79	3681
2784.31	3670
2782.84	3678.5
2781.36	3676
2779.89	3681.5
2778.41	3667.5
2776.94	3694.5
2775.46	3658.5
2773.99	3676
2772.51	3670.5
2771.03	3707
2769.55	3690
2768.07	3693
2766.6	3674
2765.12	3707.5
2763.64	3693
2762.16	3677.5
2760.68	3686.5
2759.2	3668.5
2757.72	3664
2756.24	3694
2754.75	3684
2753.27	3667
2751.79	3674
2750.31	3667.5
2748.82	3634.5
2747.34	3658
2745.86	3669.5
2744.37	3674.5
2742.89	3646
2741.4	3647
2739.92	3670
2738.43	3660.5
2736.94	3658
2735.46	3665
2733.97	3656
2732.48	3653
2731	3648
2729.51	3645.5
2728.02	3650
2726.53	3659
2725.04	3623
2723.55	3634.5
2722.06	3639
2720.57	3583
2719.08	3678
2717.59	3645.5
2716.1	3677
2714.61	3647.5
2713.11	3654.5
2711.62	3629.5
2710.13	3634.5
2708.64	3617
2707.14	3622
2705.65	3607.5
2704.15	3628
2702.66	3614
2701.16	3608.5
2699.67	3598.5
2698.17	3597.5
2696.67	3575.5
2695.18	3580.5
2693.68	3597.5
2692.18	3571.5
2690.69	3580.5
2689.19	3570.5
2687.69	3589
2686.19	3591.5
2684.69	3548.5
2683.19	3541
2681.69	3543
2680.19	3513
2678.69	3511.5
2677.19	3513
2675.68	3519.5
2674.18	3509.5
2672.68	3526.5
2671.18	3484.5
2669.67	3522.5
2668.17	3480.5
2666.66	3482
2665.16	3513
2663.66	3476.5
2662.15	3454
2660.64	3455
2659.14	3488
2657.63	3454.5
2656.13	3456
2654.62	3434.5
2653.11	3457.5
2651.6	3446.5
2650.09	3472.5
2648.58	3437
2647.08	3441.5
2645.57	3392
2644.06	3461.5
2642.55	3415
2641.04	3452
2639.52	3389
2638.01	3385.5
2636.5	3364
2634.99	3371
2633.48	3379.5
2631.96	3374.5
2630.45	3342.5
2628.94	3321
2627.42	3330.5
2625.91	3356.5
2624.39	3351
2622.88	3332.5
2621.36	3334.5
2619.85	3334.5
2618.33	3322
2616.81	3335.5
2615.3	3327
2613.78	3288.5
2612.26	3320
2610.74	3299
2609.22	3285
2607.7	3294.5
2606.18	3255
2604.66	3233
2603.14	3219
2601.62	3202.5
2600.1	3197.5
2598.58	3201.5
2597.06	3167
2595.54	3145.5
2594.01	3161
2592.49	3182
2590.97	3151.5
2589.44	3180.5
2587.92	3162
2586.39	3185
2584.87	3173
2583.34	3154.5
2581.82	3167
2580.29	3129.5
2578.76	3124
2577.24	3137
2575.71	3103.5
2574.18	3124.5
2572.65	3113
2571.13	3129
2569.6	3125.5
2568.07	3115.5
2566.54	3110
2565.01	3114.5
2563.48	3107
2561.95	3121
2560.42	3079
2558.88	3082
2557.35	3068.5
2555.82	3057
2554.29	3055
2552.75	3055
2551.22	3034
2549.69	3003.5
2548.15	3012
2546.62	3018
2545.08	3032
2543.55	3020.5
2542.01	2988
2540.47	3001
2538.94	2985
2537.4	2986.5
2535.86	2969
2534.33	2953.5
2532.79	2968.5
2531.25	2927.5
2529.71	2968
2528.17	2941
2526.63	2928.5
2525.09	2910
2523.55	2904.5
2522.01	2901.5
2520.47	2884.5
2518.92	2886.5
2517.38	2876.5
2515.84	2892.5
2514.3	2841.5
2512.75	2870.5
2511.21	2851.5
2509.67	2823.5
2508.12	2829
2506.58	2818.5
2505.03	2802.5
2503.49	2794.5
2501.94	2778
2500.39	2775.5
2498.85	2764
2497.3	2791
2495.75	2751.5
2494.2	2737
2492.65	2744.5
2491.11	2725
2489.56	2726.5
2488.01	2711.5
2486.46	2718
2484.91	2748.5
2483.36	2705.5
2481.8	2694.5
2480.25	2699
2478.7	2667.5
2477.15	2666
2475.6	2675.5
2474.04	2663.5
2472.49	2653.5
2470.93	2604.5
2469.38	2596.5
2467.83	2577
2466.27	2578.5
2464.71	2572.5
2463.16	2565.5
2461.6	2587.5
2460.05	2556
2458.49	2537.5
2456.93	2524
2455.37	2534
2453.81	2509
2452.26	2533
2450.7	2505.5
2449.14	2495.5
2447.58	2466
2446.02	2454
2444.46	2444.5
2442.9	2459
2441.33	2422
2439.77	2431
2438.21	2431
2436.65	2430
2435.08	2438
2433.52	2432.5
2431.96	2407.5
2430.39	2424
2428.83	2403
2427.26	2367.5
2425.7	2402
2424.13	2374
2422.56	2369
2421	2349.5
2419.43	2361
2417.86	2352
2416.3	2343.5
2414.73	2340
2413.16	2331
2411.59	2349.5
2410.02	2313.5
2408.45	2302
2406.88	2334
2405.31	2335
2403.74	2370.5
2402.17	2363
2400.6	2318.5
2399.02	2309
2397.45	2303
2395.88	2313.5
2394.3	2304
2392.73	2282.5
2391.16	2288
2389.58	2270.5
2388.01	2270
2386.43	2283
2384.86	2254
2383.28	2276
2381.7	2268
2380.13	2266
2378.55	2259
2376.97	2256
2375.39	2231.5
2373.81	2231
2372.23	2235.5
2370.65	2235
2369.07	2214.5
2367.49	2223.5
2365.91	2211.5
2364.33	2192.5
2362.75	2187
2361.17	2196
2359.59	2161
2358.01	2178.5
2356.42	2168
2354.84	2157.5
2353.25	2159.5
2351.67	2176
2350.09	2172
2348.5	2182
2346.92	2161.5
2345.33	2161.5
2343.74	2163
2342.16	2140
2340.57	2109.5
2338.98	2128.5
2337.39	2103.5
2335.81	2125
2334.22	2140
2332.63	2135.5
2331.04	2119.5
2329.45	2136
2327.86	2121
2326.27	2106
2324.68	2096.5
2323.09	2082.5
2321.49	2082
2319.9	2071
2318.31	2052
2316.72	2055.5
2315.12	2060
2313.53	2033
2311.93	2019
2310.34	2009
2308.74	2015
2307.15	2003
2305.55	2000.5
2303.96	1973
2302.36	1978.5
2300.76	1958.5
2299.17	1977
2297.57	1965
2295.97	1953
2294.37	1940.5
2292.77	1949
2291.17	1926
2289.57	1900
2287.97	1922.5
2286.37	1920
2284.77	1917.5
2283.17	1925
2281.57	1925.5
2279.96	1928
2278.36	1875
2276.76	1891.5
2275.15	1883
2273.55	1887.5
2271.95	1896
2270.34	1865
2268.74	1871.5
2267.13	1848.5
2265.52	1834
2263.92	1821
2262.31	1823
2260.7	1816.5
2259.1	1818
2257.49	1814
2255.88	1819
2254.27	1811
2252.66	1802.5
2251.05	1782
2249.44	1793.5
2247.83	1800.5
2246.22	1774.5
2244.61	1796.5
2243	1812.5
2241.39	1793
2239.77	1770.5
2238.16	1771.5
2236.55	1773
2234.93	1755
2233.32	1763
2231.7	1755
2230.09	1722
2228.47	1742.5
2226.86	1727
2225.24	1722
2223.63	1731
2222.01	1725.5
2220.39	1719
2218.77	1691
2217.16	1683
2215.54	1658
2213.92	1676
2212.3	1649.5
2210.68	1656.5
2209.06	1662.5
2207.44	1653.5
2205.82	1652.5
2204.19	1631.5
2202.57	1635.5
2200.95	1638
2199.33	1623
2197.7	1608
2196.08	1605
2194.46	1618.5
2192.83	1603
2191.21	1595.5
2189.58	1601.5
2187.96	1588.5
2186.33	1598.5
2184.7	1576
2183.08	1592.5
2181.45	1593
2179.82	1558.5
2178.19	1564.5
2176.57	1538
2174.94	1552
2173.31	1527
2171.68	1545.5
2170.05	1541
2168.42	1524
2166.79	1532
2165.16	1527
2163.52	1529
2161.89	1490
2160.26	1504.5
2158.63	1486
2156.99	1483
2155.36	1490.5
2153.73	1470.5
2152.09	1471
2150.46	1460
2148.82	1461
2147.18	1461.5
2145.55	1457.5
2143.91	1428
2142.27	1419
2140.64	1459
2139	1415.5
2137.36	1422
2135.72	1414
2134.08	1405
2132.44	1396
2130.8	1405
2129.16	1394.5
2127.52	1395.5
2125.88	1366
2124.24	1352.5
2122.6	1355
2120.95	1344.5
2119.31	1322.5
2117.67	1322
2116.02	1331
2114.38	1323.5
2112.74	1332.5
2111.09	1325
2109.45	1305
2107.8	1314.5
2106.15	1306
2104.51	1300
2102.86	1272.5
2101.21	1295.5
2099.56	1293.5
2097.92	1273.5
2096.27	1280
2094.62	1264
2092.97	1270.5
2091.32	1263.5
2089.67	1271
2088.02	1264.5
2086.37	1258.5
2084.72	1255
2083.06	1238
2081.41	1246
2079.76	1248
2078.1	1254.5
2076.45	1247.5
2074.8	1226
2073.14	1231
2071.49	1230
2069.83	1232.5
2068.18	1239.5
2066.52	1204.5
2064.86	1209.5
2063.21	1210.5
2061.55	1207.5
2059.89	1200
2058.23	1192
2056.57	1217.5
2054.92	1203
2053.26	1205
2051.6	1199.5
2049.94	1195.5
2048.27	1173
2046.61	1188
2044.95	1172
2043.29	1170.5
2041.63	1166.5
2039.97	1134
2038.3	1161.5
2036.64	1145
2034.97	1147.5
2033.31	1145.5
2031.64	1124.5
2029.98	1139
2028.31	1119
2026.65	1113
2024.98	1103.5
2023.31	1081
2021.65	1101.5
2019.98	1105.5
2018.31	1095.5
2016.64	1093
2014.97	1105
2013.3	1083
2011.63	1077
2009.96	1081.5
2008.29	1053.5
2006.62	1057
2004.95	1056
2003.28	1044.5
2001.6	1057.5
1999.93	1040
1998.26	1054
1996.58	1037.5
1994.91	1049.5
1993.24	1043.5
1991.56	1043
1989.89	1035.5
1988.21	1029
1986.53	1029
1984.86	996
1983.18	1007
1981.5	1005
1979.82	1007.5
1978.15	1005.5
1976.47	1000.5
1974.79	997.5
1973.11	1002
1971.43	988
1969.75	993.5
1968.07	976.5
1966.38	966
1964.7	960.5
1963.02	946
1961.34	956.5
1959.66	953.5
1957.97	944.5
1956.29	955.5
1954.6	946
1952.92	940
1951.23	922.5
1949.55	918
1947.86	927
1946.18	903
1944.49	908
1942.8	899.5
1941.11	895
1939.43	911.5
1937.74	886
1936.05	909.5
1934.36	891
1932.67	894
1930.98	870
1929.29	871
1927.6	877.5
1925.91	854.5
1924.21	871.5
1922.52	862
1920.83	862
1919.14	855.5
1917.44	853.5
1915.75	855
1914.05	849.5
1912.36	843
1910.66	839
1908.97	833
1907.27	836
1905.58	835
1903.88	823
1902.18	827.5
1900.48	817.5
1898.79	822
1897.09	806.5
1895.39	802
1893.69	806.5
1891.99	810.5
1890.29	783.5
1888.59	789.5
1886.89	783
1885.18	782.5
1883.48	780.5
1881.78	780
1880.08	758.5
1878.37	758.5
1876.67	753
1874.96	752.5
1873.26	746
1871.55	744.5
1869.85	744
1868.14	741.5
1866.44	739.5
1864.73	735
1863.02	734.5
1861.32	720.5
1859.61	725.5
1857.9	740.5
1856.19	717.5
1854.48	719.5
1852.77	703
1851.06	721
1849.35	703
1847.64	709
1845.93	696.5
1844.21	705.5
1842.5	703
1840.79	683
1839.08	703
1837.36	678.5
1835.65	672.5
1833.93	692.5
1832.22	674.5
1830.5	669.5
1828.79	670.5
1827.07	655.5
1825.36	652.5
1823.64	662
1821.92	662.5
1820.2	660
1818.48	658
1816.77	644
1815.05	645.5
1813.33	645.5
1811.61	649
1809.89	639
1808.16	639
1806.44	628
1804.72	626
1803	619
1801.28	628
1799.55	620.5
1797.83	613.5
1796.11	608.5
1794.38	597
1792.66	602.5
1790.93	610
1789.21	597
1787.48	596.5
1785.75	595
1784.03	594
1782.3	591
1780.57	589.5
1778.84	583
1777.11	582.5
1775.38	585
1773.66	587
1771.93	580
1770.19	564
1768.46	585.5
1766.73	578
1765	583.5
1763.27	586
1761.54	600
1759.8	589.5
1758.07	587.5
1756.34	601
1754.6	598.5
1752.87	600
1751.13	599.5
1749.4	599.5
1747.66	602.5
1745.92	614.5
1744.19	596
1742.45	609
1740.71	597
1738.97	581
1737.23	579.5
1735.49	576.5
1733.75	554
1732.01	567
1730.27	554
1728.53	548.5
1726.79	549
1725.05	543
1723.31	537
1721.57	540.5
1719.82	523
1718.08	531
1716.34	526.5
1714.59	529
1712.85	514
1711.1	508.5
1709.36	507.5
1707.61	504
1705.86	520.5
1704.12	511
1702.37	522
1700.62	510
1698.87	512
1697.12	493
1695.37	475.5
1693.62	482.5
1691.87	478
1690.12	482
1688.37	487
1686.62	483
1684.87	503.5
1683.12	491
1681.36	477
1679.61	484
1677.86	492.5
1676.1	481
1674.35	501
1672.59	490.5
1670.84	499
1669.08	516
1667.33	524.5
1665.57	555.5
1663.81	558
1662.06	576.5
1660.3	599.5
1658.54	621.5
1656.78	612.5
1655.02	610.5
1653.26	581.5
1651.5	555
1649.74	551
1647.98	520.5
1646.22	496
1644.46	482
1642.7	482.5
1640.93	461
1639.17	452.5
1637.41	455
1635.64	449
1633.88	426.5
1632.11	438
1630.35	427.5
1628.58	438
1626.81	422.5
1625.05	420.5
1623.28	432.5
1621.51	424
1619.75	417.5
1617.98	417.5
1616.21	421.5
1614.44	408.5
1612.67	399
1610.9	401
1609.13	411
1607.36	397
1605.58	407.5
1603.81	401
1602.04	404
1600.27	397
1598.49	400
1596.72	392.5
1594.95	398
1593.17	402
1591.4	382
1589.62	385.5
1587.84	398
1586.07	393
1584.29	388.5
1582.51	396
1580.74	391.5
1578.96	376.5
1577.18	386
1575.4	376.5
1573.62	368
1571.84	386
1570.06	373.5
1568.28	368
1566.5	362
1564.72	364.5
1562.93	376
1561.15	369.5
1559.37	365.5
1557.58	375.5
1555.8	370.5
1554.02	358.5
1552.23	363
1550.45	369
1548.66	354.5
1546.87	354
1545.09	360
1543.3	357
1541.51	352.5
1539.72	352.5
1537.94	346.5
1536.15	352
1534.36	353
1532.57	336.5
1530.78	340.5
1528.99	353.5
1527.2	332
1525.4	342.5
1523.61	335.5
1521.82	335
1520.03	335.5
1518.23	344
1516.44	340.5
1514.65	344.5
1512.85	347.5
1511.06	327.5
1509.26	335
1507.46	344
1505.67	343.5
1503.87	345.5
1502.07	340.5
1500.28	340
1498.48	340.5
1496.68	341.5
1494.88	336.5
1493.08	342
1491.28	345.5
1489.48	353.5
1487.68	355.5
1485.88	351.5
1484.08	369.5
1482.27	359.5
1480.47	372.5
1478.67	385
1476.86	405
1475.06	411
1473.25	432.5
1471.45	448.5
1469.64	460.5
1467.84	481.5
1466.03	510
1464.23	513
1462.42	549.5
1460.61	566
1458.8	591
1456.99	604.5
1455.18	630
1453.37	620
1451.56	640
1449.75	658
1447.94	660.5
1446.13	693.5
1444.32	700.5
1442.51	729.5
1440.7	727
1438.88	707
1437.07	666
1435.26	621
1433.44	563.5
1431.63	506
1429.81	468.5
1427.99	443.5
1426.18	416
1424.36	403
1422.54	379
1420.73	371.5
1418.91	365
1417.09	356
1415.27	326.5
1413.45	323
1411.63	323
1409.81	330
1407.99	312
1406.17	308.5
1404.35	297.5
1402.53	301
1400.7	304
1398.88	297
1397.06	291
1395.23	292.5
1393.41	285.5
1391.58	280.5
1389.76	282
1387.93	281.5
1386.11	287
1384.28	281
1382.45	282.5
1380.62	277
1378.8	286
1376.97	292
1375.14	289.5
1373.31	278.5
1371.48	292
1369.65	281.5
1367.82	286.5
1365.99	278.5
1364.16	288
1362.32	276.5
1360.49	290.5
1358.66	282.5
1356.82	282
1354.99	275
1353.16	281
1351.32	288.5
1349.48	272
1347.65	275
1345.81	269.5
1343.98	286
1342.14	276.5
1340.3	279
1338.46	296
1336.62	278
1334.79	301.5
1332.95	288.5
1331.11	308
1329.27	313
1327.42	327.5
1325.58	337.5
1323.74	344.5
1321.9	361
1320.06	358.5
1318.21	385
1316.37	398.5
1314.53	425
1312.68	437.5
1310.84	452.5
1308.99	495.5
1307.15	506.5
1305.3	517
1303.45	542
1301.61	525.5
1299.76	517.5
1297.91	492.5
1296.06	482
1294.21	436
1292.36	425.5
1290.51	403
1288.66	391
1286.81	375
1284.96	365
1283.11	364.5
1281.26	368
1279.4	349
1277.55	363
1275.7	372
1273.84	364.5
1271.99	378.5
1270.13	371
1268.28	365
1266.42	377
1264.56	361.5
1262.71	364
1260.85	354.5
1258.99	347.5
1257.13	316.5
1255.27	308.5
1253.41	310
1251.56	300.5
1249.7	294
1247.83	294
1245.97	275
1244.11	277
1242.25	273
1240.39	267.5
1238.52	255
1236.66	254.5
1234.8	254
1232.93	248.5
1231.07	229
1229.2	237
1227.34	239.5
1225.47	244.5
1223.6	235.5
1221.74	226.5
1219.87	224
1218	226
1216.13	223
1214.26	213
1212.39	209
1210.53	215.5
1208.65	216.5
1206.78	221.5
1204.91	229
1203.04	207.5
1201.17	227
1199.3	218.5
1197.42	208
1195.55	212.5
1193.68	218
1191.8	215
1189.93	198
1188.05	202
1186.17	196
1184.3	199.5
1182.42	209.5
1180.54	209.5
1178.67	205
1176.79	207
1174.91	206
1173.03	204
1171.15	203
1169.27	217
1167.39	205.5
1165.51	205.5
1163.63	214
1161.75	202
1159.86	204.5
1157.98	210.5
1156.1	208
1154.21	203
1152.33	211
1150.44	208.5
1148.56	218
1146.67	209
1144.79	204
1142.9	213.5
1141.01	213.5
1139.12	215
1137.24	212
1135.35	229.5
1133.46	249
1131.57	250.5
1129.68	254.5
1127.79	265
1125.9	268
1124.01	271.5
1122.12	276.5
1120.22	271
1118.33	261
1116.44	266
1114.54	260
1112.65	265.5
1110.75	258
1108.86	258
1106.96	262.5
1105.07	275.5
1103.17	282
1101.27	288
1099.38	296.5
1097.48	307.5
1095.58	328.5
1093.68	333
1091.78	352
1089.88	366.5
1087.98	371
1086.08	385
1084.18	374.5
1082.28	378.5
1080.38	377
1078.47	385.5
1076.57	371.5
1074.67	361
1072.76	366.5
1070.86	367
1068.95	352
1067.05	372
1065.14	364
1063.24	358.5
1061.33	340.5
1059.42	331.5
1057.51	314
1055.6	294.5
1053.7	293.5
1051.79	284.5
1049.88	275.5
1047.97	270
1046.06	272.5
1044.14	269
1042.23	264
1040.32	269
1038.41	264
1036.5	268.5
1034.58	264.5
1032.67	262.5
1030.75	254
1028.84	260
1026.92	259.5
1025.01	255
1023.09	260
1021.17	254
1019.26	245
1017.34	246
1015.42	252.5
1013.5	246
1011.58	256
1009.66	237
1007.74	237
1005.82	247
1003.9	241
1001.98	240
1000.06	245
998.134	235
996.212	240
994.288	251
992.364	245.5
990.44	247.5
988.515	260.5
986.589	267
984.663	266.5
982.737	289.5
980.81	285.5
978.883	296
976.955	322
975.027	312
973.098	311
971.169	318
969.239	316.5
967.308	309.5
965.378	318.5
963.447	320.5
961.516	311.5
959.583	320
957.65	309.5
955.718	311.5
953.784	320
951.85	326
949.916	316.5
947.981	334.5
946.045	335.5
944.109	334.5
942.173	340
940.236	347.5
938.298	328
936.36	332.5
934.422	329
932.484	324.5
930.544	319.5
928.604	291
926.664	292
924.724	294.5
922.782	280.5
920.84	291.5
918.898	295.5
916.955	283.5
915.012	287
913.068	272
911.124	285
909.18	286.5
907.235	283.5
905.289	282
903.343	294
901.397	291
899.45	293
897.502	314.5
895.554	298
893.605	321.5
891.657	313.5
889.707	308
887.758	316.5
885.807	314
883.856	317
881.905	327.5
879.953	324.5
878.001	340.5
876.048	329.5
874.094	341
872.14	341
870.186	327
868.232	335.5
866.276	332.5
864.321	318.5
862.365	331
860.408	319
858.451	315.5
856.493	327.5
854.535	319
852.576	325.5
850.617	323
848.658	325
846.698	310
844.737	306.5
842.776	305
840.814	295
838.852	295
836.89	286.5
834.927	293
832.963	289.5
830.999	263
829.035	255.5
827.07	257
825.105	248
823.139	233
821.172	238.5
819.206	233
817.238	231.5
815.27	222
813.301	214.5
811.333	218
809.363	203
807.394	206
805.424	199
803.453	187.5
801.482	196
799.509	191
797.538	164
795.565	173
793.592	165
791.618	172
789.643	176.5
787.669	168.5
785.693	170.5
783.718	167.5
781.742	164.5
779.765	167
777.788	160
775.811	165.5
773.832	162
771.853	166
769.875	164.5
767.895	166
765.915	159.5
763.934	159.5
761.953	160
759.972	174.5
757.99	166
756.007	155
754.024	163
752.041	162.5
750.056	162
748.072	155
746.087	156
744.102	162.5
742.116	163.5
740.13	164
738.143	161.5
736.155	169.5
734.167	170.5
732.179	170
730.19	174.5
728.2	178
726.21	164
724.22	165
722.229	166
720.237	164
718.246	158.5
716.253	157
714.26	164.5
712.267	159.5
710.273	150.5
708.279	154.5
706.284	133
704.289	152
702.293	153
700.296	141.5
698.3	141.5
696.303	140
694.305	133
692.307	143.5
690.307	142.5
688.308	150
686.309	140.5
684.308	145
682.308	142
680.306	143
678.304	143
676.302	140
674.3	152.5
672.296	151
670.293	142.5
668.289	148
666.284	155.5
664.278	145.5
662.273	144.5
660.266	149.5
658.26	148
656.252	143.5
654.244	149.5
652.237	154.5
650.227	160.5
648.218	158.5
646.209	144
644.198	153
642.188	154
640.177	152
638.165	155
636.153	149
634.14	151
632.128	162
630.113	157
628.099	163
626.085	160.5
624.07	166.5
622.054	170.5
620.038	167.5
618.021	170
616.004	159
613.986	179
611.968	162
609.949	179.5
607.93	176.5
605.911	181
603.891	178
601.87	177
599.848	176
597.827	180
595.805	175.5
593.782	167.5
591.759	161
589.735	168.5
587.711	163
585.687	164
583.661	162
581.636	174.5
579.609	153
577.583	168.5
575.555	154
573.527	158.5
571.5	157.5
569.471	165.5
567.441	153
565.412	159.5
563.382	163.5
561.351	170.5
559.32	172
557.289	173.5
555.257	180
553.223	191.5
551.19	188.5
549.157	201.5
547.122	204
545.088	206
543.053	228.5
541.017	233
538.981	258
536.943	301.5
534.907	362
532.869	475
530.831	660.5
528.792	962
526.752	1491.5
524.713	2153.5
522.673	2641
520.632	2619.5
518.591	2108
516.549	1538
514.507	1047
512.464	710
510.42	510
508.377	382.5
506.332	312.5
504.288	281
502.242	254.5
500.196	234
498.15	229.5
496.104	228.5
494.056	222
492.008	225.5
489.96	219.5
487.911	218.5
485.862	209.5
483.812	211.5
481.761	202
479.71	204
477.659	204
475.607	197
473.555	191.5
471.502	205.5
469.448	196
467.395	209
465.34	210
463.285	199
461.23	207
459.174	205.5
457.118	197.5
455.061	211
453.003	202.5
450.945	210.5
448.887	209
446.828	214
444.768	202
442.708	207.5
440.647	212
438.587	222.5
436.525	220
434.463	216
432.4	226
430.337	220
428.274	218
426.21	230
424.145	219
422.079	223.5
420.014	235.5
417.948	236
415.882	239.5
413.814	235.5
411.746	249.5
409.679	245
407.609	236.5
405.54	235
403.47	233.5
401.401	223
399.329	242
397.258	220
395.187	239.5
393.114	242.5
391.041	244
388.968	236
386.895	238
384.82	243
382.745	239.5
380.67	242
378.594	239
376.517	246
374.44	245.5
372.363	251
370.286	253
368.207	254
366.128	253.5
364.049	261
361.969	250
359.888	267.5
357.807	263.5
355.725	260
353.643	263
351.561	263.5
349.477	264.5
347.394	273.5
345.31	268.5
343.226	275
341.141	271
339.055	281
336.968	277
334.882	284.5
332.795	291
330.707	287
328.618	285
326.53	298.5
324.44	304.5
322.351	304.5
320.26	321
318.17	340
316.078	341
313.987	343
311.895	360.5
309.802	365
307.708	390
305.614	387
303.52	383
301.425	394
299.329	387.5
297.233	386.5
295.137	371.5
293.039	370
290.942	365
288.844	365
286.745	364.5
284.647	365
282.546	357.5
280.446	361
278.346	366
276.245	368.5
274.143	374
272.041	383
269.939	376.5
267.835	387.5
265.731	398
263.627	390.5
261.522	387.5
259.417	396.5
257.311	394
255.204	398.5
253.098	403.5
250.99	418
248.882	435
246.774	424
244.664	436
242.555	430.5
240.445	448
238.334	452
236.223	442
234.112	464
232	462
229.888	460
227.775	470
225.661	473
223.546	484.5
221.431	469
219.316	487.5
217.201	482.5
215.084	490
212.967	502
210.85	498.5
208.732	492
206.614	497
204.495	492
202.375	496.5
200.256	505
198.135	491
196.014	496
193.893	503
191.771	506
189.648	501.5
187.525	508
185.401	503.5
183.277	512.5
181.152	504
179.027	506
176.901	520
174.775	517.5
172.648	520.5
170.521	536.5
168.393	527
166.265	545.5
164.136	556.5
162.007	559.5
159.876	576
157.746	568.5
155.615	598
153.483	611.5
151.351	615
149.219	633
147.086	651
144.952	666
142.818	685
140.684	713.5
138.548	717
136.413	732.5
134.276	753.5
132.139	786.5
130.002	805
127.864	821.5
125.725	857.5
123.587	893
121.447	920.5
119.307	948
117.166	976
115.026	1026.5
112.885	1056
110.743	1079
108.6	1123
106.456	1120
104.313	1143.5
102.169	1126
100.023	1068
97.8789	1006
95.7328	903
93.5869	812
91.4392	679
89.2919	552
87.1447	435
84.9959	332
