3528.51	183
3527.23	194.5
3525.95	223.5
3524.67	220
3523.39	229.5
3522.1	222
3520.82	226.5
3519.54	222
3518.26	231
3516.97	226
3515.69	222
3514.4	236.5
3513.12	232
3511.84	230
3510.55	229
3509.26	221.5
3507.98	246
3506.69	241.5
3505.41	247
3504.12	235
3502.83	245
3501.54	256
3500.26	251
3498.97	233.5
3497.68	267
3496.39	253.5
3495.1	257
3493.81	260.5
3492.52	277
3491.23	263.5
3489.94	304
3488.65	266
3487.36	291
3486.07	281
3484.78	292.5
3483.49	297.5
3482.19	294
3480.9	309.5
3479.61	306
3478.31	308.5
3477.02	315
3475.73	312.5
3474.43	321.5
3473.14	310
3471.84	312.5
3470.54	325
3469.25	324.5
3467.95	330.5
3466.66	321
3465.36	336
3464.06	326.5
3462.76	325.5
3461.46	327.5
3460.17	349
3458.87	342
3457.57	335
3456.27	347
3454.97	346.5
3453.67	349
3452.37	364
3451.07	354.5
3449.77	345
3448.47	356.5
3447.16	372.5
3445.86	386.5
3444.56	363.5
3443.26	389.5
3441.95	390.5
3440.65	405
3439.35	411.5
3438.04	402.5
3436.74	425
3435.43	418
3434.13	442
3432.82	436
3431.52	437.5
3430.21	455.5
3428.9	455
3427.6	461.5
3426.29	478
3424.98	484.5
3423.67	507
3422.36	496
3421.06	512.5
3419.75	499
3418.44	504.5
3417.13	505
3415.82	518.5
3414.51	529.5
3413.2	525
3411.88	534
3410.57	514.5
3409.26	526
3407.95	543
3406.64	548
3405.32	565
3404.01	573.5
3402.7	556
3401.38	564
3400.07	568
3398.75	588.5
3397.44	593
3396.12	577.5
3394.81	589.5
3393.49	606
3392.18	613
3390.86	619.5
3389.54	626.5
3388.23	616
3386.91	623.5
3385.59	635.5
3384.27	650
3382.95	643
3381.63	652
3380.31	636.5
3378.99	658
3377.67	658
3376.35	670
3375.03	678.5
3373.71	691
3372.39	686.5
3371.07	685
3369.75	687
3368.42	705
3367.1	685
3365.78	709.5
3364.45	724
3363.13	733
3361.81	711.5
3360.48	717
3359.16	717
3357.83	768
3356.51	756.5
3355.18	764
3353.85	789.5
3352.53	752.5
3351.2	754
3349.87	740.5
3348.54	760.5
3347.22	740
3345.89	767
3344.56	763
3343.23	768.5
3341.9	784
3340.57	797
3339.24	778
3337.91	784
3336.58	784
3335.25	776.5
3333.92	794.5
3332.58	797
3331.25	808.5
3329.92	804
3328.59	812.5
3327.25	811.5
3325.92	815.5
3324.58	822
3323.25	823
3321.92	851.5
3320.58	817
3319.25	840
3317.91	844
3316.57	844.5
3315.24	896.5
3313.9	869
3312.56	889
3311.23	859
3309.89	880.5
3308.55	885
3307.21	892.5
3305.87	868
3304.53	882
3303.19	878.5
3301.85	897.5
3300.51	880.5
3299.17	905.5
3297.83	894.5
3296.49	910.5
3295.15	921
3293.81	921
3292.46	937
3291.12	907.5
3289.78	918
3288.43	897.5
3287.09	927.5
3285.75	920
3284.4	940.5
3283.06	940.5
3281.71	929
3280.37	944
3279.02	954
3277.67	976.5
3276.33	994.5
3274.98	980.5
3273.63	961.5
3272.28	982.5
3270.94	1013
3269.59	992.5
3268.24	1008.5
3266.89	1013
3265.54	1010.5
3264.19	1057
3262.84	1062
3261.49	1058
3260.14	1081.5
3258.79	1095
3257.44	1123.5
3256.08	1128.5
3254.73	1177
3253.38	1170.5
3252.03	1212
3250.67	1236
3249.32	1270.5
3247.96	1294.5
3246.61	1336.5
3245.26	1360
3243.9	1395
3242.54	1443
3241.19	1443.5
3239.83	1490
3238.48	1518
3237.12	1581
3235.76	1628
3234.41	1657.5
3233.05	1699
3231.69	1740
3230.33	1786.5
3228.97	1826
3227.61	1835
3226.25	1854
3224.89	1905.5
3223.53	1921.5
3222.17	1966
3220.81	2007.5
3219.45	2026.5
3218.09	2040.5
3216.72	2071
3215.36	2110.5
3214	2120.5
3212.63	2143
3211.27	2161.5
3209.91	2143
3208.54	2170.5
3207.18	2194.5
3205.81	2200
3204.45	2212
3203.08	2228
3201.71	2231
3200.35	2247
3198.98	2283.5
3197.61	2323
3196.25	2323.5
3194.88	2304.5
3193.51	2331
3192.14	2283.5
3190.77	2326
3189.4	2347.5
3188.03	2339
3186.66	2334.5
3185.29	2391.5
3183.92	2433
3182.55	2425.5
3181.18	2415
3179.81	2422.5
3178.44	2451.5
3177.06	2452.5
3175.69	2511
3174.32	2506
3172.94	2508.5
3171.57	2529
3170.2	2556
3168.82	2567.5
3167.45	2610
3166.07	2608.5
3164.69	2585
3163.32	2674
3161.94	2643
3160.56	2684.5
3159.19	2718
3157.81	2718.5
3156.43	2751
3155.05	2797.5
3153.67	2767.5
3152.3	2788
3150.92	2830.5
3149.54	2853
3148.16	2870
3146.78	2910.5
3145.4	2884.5
3144.01	2961.5
3142.63	2920
3141.25	2921
3139.87	2966
3138.49	2969.5
3137.1	3029
3135.72	2965
3134.34	3053.5
3132.95	3054.5
3131.57	3100.5
3130.18	3119.5
3128.8	3148.5
3127.41	3141.5
3126.03	3149
3124.64	3185.5
3123.25	3237.5
3121.87	3248.5
3120.48	3249
3119.09	3244.5
3117.7	3319.5
3116.32	3299.5
3114.93	3317.5
3113.54	3323.5
3112.15	3337.5
3110.76	3369.5
3109.37	3394.5
3107.98	3372.5
3106.59	3413.5
3105.2	3391.5
3103.8	3446.5
3102.41	3458
3101.02	3481.5
3099.63	3522
3098.23	3462.5
3096.84	3488
3095.45	3491.5
3094.05	3510.5
3092.66	3526.5
3091.26	3538.5
3089.87	3581.5
3088.47	3576.5
3087.08	3600.5
3085.68	3586.5
3084.28	3585
3082.89	3630
3081.49	3649
3080.09	3650
3078.69	3644
3077.3	3615.5
3075.9	3675
3074.5	3698
3073.1	3665.5
3071.7	3671.5
3070.3	3720.5
3068.9	3709.5
3067.5	3710
3066.09	3742
3064.69	3716
3063.29	3735.5
3061.89	3705.5
3060.48	3735.5
3059.08	3816.5
3057.68	3781
3056.27	3767
3054.87	3800
3053.46	3824.5
3052.06	3816
3050.65	3828.5
3049.25	3871.5
3047.84	3862.5
3046.44	3927.5
3045.03	3893.5
3043.62	3902
3042.21	3899
3040.81	3937.5
3039.4	3937.5
3037.99	3918.5
3036.58	3980.5
3035.17	3964.5
3033.76	3990
3032.35	3995
3030.94	4022
3029.53	4024
3028.12	4059
3026.71	3982.5
3025.29	4075
3023.88	4094.5
3022.47	4033
3021.06	4049
3019.64	4052
3018.23	4088.5
3016.82	4105
3015.4	4122.5
3013.99	4119.5
3012.57	4091.5
3011.15	4135.5
3009.74	4109.5
3008.32	4169
3006.91	4149
3005.49	4152.5
3004.07	4165
3002.65	4219
3001.24	4192
2999.82	4218
2998.4	4245
2996.98	4235
2995.56	4286
2994.14	4321
2992.72	4286
2991.3	4335.5
2989.88	4409
2988.46	4361
2987.03	4392
2985.61	4394.5
2984.19	4453
2982.77	4497.5
2981.34	4459
2979.92	4527
2978.49	4552
2977.07	4600
2975.65	4544.5
2974.22	4648
2972.79	4638
2971.37	4726
2969.94	4710.5
2968.52	4720.5
2967.09	4740
2965.66	4764.5
2964.23	4780.5
2962.81	4774.5
2961.38	4787.5
2959.95	4856
2958.52	4751
2957.09	4833.5
2955.66	4817
2954.23	4859
2952.8	4908.5
2951.37	4921
2949.94	4882
2948.5	4915.5
2947.07	4957
2945.64	4963
2944.21	4941
2942.77	4969
2941.34	4957
2939.91	5016
2938.47	5022
2937.04	5045
2935.6	5060.5
2934.17	5045.5
2932.73	5074
2931.29	5137.5
2929.86	5170
2928.42	5192
2926.98	5154.5
2925.55	5241.5
2924.11	5221.5
2922.67	5259
2921.23	5252.5
2919.79	5268
2918.35	5292.5
2916.91	5232
2915.47	5339.5
2914.03	5334
2912.59	5289.5
2911.15	5327.5
2909.71	5368.5
2908.26	5427.5
2906.82	5379
2905.38	5415
2903.94	5411.5
2902.49	5405.5
2901.05	5494
2899.6	5442.5
2898.16	5480
2896.71	5446.5
2895.27	5481.5
2893.82	5460
2892.38	5462.5
2890.93	5501
2889.48	5490.5
2888.03	5467.5
2886.59	5499
2885.14	5491.5
2883.69	5541
2882.24	5501.5
2880.79	5498.5
2879.34	5525.5
2877.89	5528
2876.44	5611.5
2874.99	5526
2873.54	5489.5
2872.09	5515.5
2870.64	5549
2869.18	5632.5
2867.73	5576.5
2866.28	5579
2864.83	5634
2863.37	5607.5
2861.92	5589.5
2860.46	5569.5
2859.01	5600.5
2857.55	5623.5
2856.1	5649.5
2854.64	5607.5
2853.19	5622
2851.73	5582.5
2850.27	5610.5
2848.81	5649.5
2847.36	5598.5
2845.9	5605
2844.44	5578.5
2842.98	5495.5
2841.52	5508
2840.06	5460.5
2838.6	5453.5
2837.14	5427.5
2835.68	5376
2834.22	5350.5
2832.76	5353
2831.3	5361
2829.83	5347
2828.37	5307
2826.91	5309
2825.44	5320
2823.98	5283.5
2822.52	5300
2821.05	5252.5
2819.59	5231
2818.12	5272
2816.66	5232
2815.19	5226
2813.72	5212
2812.26	5190
2810.79	5200
2809.32	5212.5
2807.85	5115.5
2806.38	5124.5
2804.92	5148
2803.45	5103.5
2801.98	5126.5
2800.51	5155
2799.04	5140
2797.57	5119
2796.1	5098.5
2794.62	5075.5
2793.15	5085
2791.68	5073
2790.21	5113
2788.73	5072
2787.26	5074.5
2785.79	5049
2784.31	5025
2782.84	5050
2781.36	5126
2779.89	5043.5
2778.41	5078
2776.94	5107
2775.46	5090
2773.99	5082
2772.51	5065
2771.03	5093
2769.55	5134.5
2768.07	5131
2766.6	5103.5
2765.12	5152
2763.64	5099.5
2762.16	5128.5
2760.68	5131
2759.2	5131
2757.72	5081
2756.24	5066.5
2754.75	5065.5
2753.27	5029.5
2751.79	5060.5
2750.31	5102.5
2748.82	5071
2747.34	5108.5
2745.86	5092.5
2744.37	5069
2742.89	5075
2741.4	5075.5
2739.92	5079.5
2738.43	5055.5
2736.94	5079
2735.46	5067.5
2733.97	5073
2732.48	5056.5
2731	5113.5
2729.51	5074
2728.02	5072.5
2726.53	5061.5
2725.04	5053.5
2723.55	5054.5
2722.06	5085.5
2720.57	4980.5
2719.08	5076
2717.59	5030.5
2716.1	5089.5
2714.61	5074.5
2713.11	5009
2711.62	5076
2710.13	5049.5
2708.64	5020
2707.14	5010.5
2705.65	5078
2704.15	5018
2702.66	4972.5
2701.16	5028
2699.67	4983.5
2698.17	4939.5
2696.67	4973.5
2695.18	4951.5
2693.68	4949.5
2692.18	4991.5
2690.69	4932.5
2689.19	4861
2687.69	4940
2686.19	4962.5
2684.69	4912
2683.19	4920.5
2681.69	4874
2680.19	4894
2678.69	4851
2677.19	4898.5
2675.68	4924
2674.18	4842
2672.68	4833.5
2671.18	4893
2669.67	4834
2668.17	4832.5
2666.66	4842.5
2665.16	4843
2663.66	4889.5
2662.15	4841
2660.64	4796.5
2659.14	4735
2657.63	4805.5
2656.13	4833
2654.62	4796
2653.11	4787
2651.6	4783
2650.09	4781.5
2648.58	4744
2647.08	4775.5
2645.57	4767
2644.06	4747
2642.55	4731.5
2641.04	4695
2639.52	4737.5
2638.01	4675
2636.5	4662.5
2634.99	4630.5
2633.48	4623
2631.96	4658
2630.45	4613.5
2628.94	4624.5
2627.42	4605
2625.91	4603.5
2624.39	4600.5
2622.88	4605.5
2621.36	4637.5
2619.85	4556
2618.33	4607.5
2616.81	4576
2615.3	4570
2613.78	4556.5
2612.26	4591.5
2610.74	4558
2609.22	4574.5
2607.7	4536.5
2606.18	4553
2604.66	4530.5
2603.14	4469.5
2601.62	4502
2600.1	4479.5
2598.58	4450.5
2597.06	4400.5
2595.54	4398
2594.01	4389.5
2592.49	4372
2590.97	4413.5
2589.44	4415
2587.92	4385
2586.39	4389
2584.87	4344.5
2583.34	4351
2581.82	4408
2580.29	4363.5
2578.76	4334
2577.24	4316
2575.71	4357.5
2574.18	4355.5
2572.65	4321
2571.13	4305
2569.6	4311
2568.07	4280.5
2566.54	4298
2565.01	4287.5
2563.48	4241.5
2561.95	4276.5
2560.42	4277
2558.88	4273.5
2557.35	4245.5
2555.82	4253.5
2554.29	4217.5
2552.75	4212
2551.22	4195
2549.69	4205
2548.15	4149.5
2546.62	4172
2545.08	4217.5
2543.55	4158
2542.01	4119.5
2540.47	4143
2538.94	4150
2537.4	4094
2535.86	4150.5
2534.33	4107
2532.79	4043.5
2531.25	4085.5
2529.71	4060
2528.17	4051
2526.63	4026
2525.09	4019.5
2523.55	4009.5
2522.01	3981.5
2520.47	3980
2518.92	3972.5
2517.38	3967.5
2515.84	3958.5
2514.3	3965.5
2512.75	3944
2511.21	3942.5
2509.67	3901.5
2508.12	3908.5
2506.58	3858.5
2505.03	3909
2503.49	3862.5
2501.94	3844.5
2500.39	3865
2498.85	3850.5
2497.3	3830.5
2495.75	3793
2494.2	3796
2492.65	3790.5
2491.11	3761.5
2489.56	3795
2488.01	3730
2486.46	3760
2484.91	3717
2483.36	3745
2481.8	3697.5
2480.25	3681.5
2478.7	3675
2477.15	3692
2475.6	3682.5
2474.04	3629.5
2472.49	3629
2470.93	3613
2469.38	3620
2467.83	3560
2466.27	3562
2464.71	3540
2463.16	3506
2461.6	3489.5
2460.05	3497
2458.49	3512.5
2456.93	3536.5
2455.37	3503.5
2453.81	3484.5
2452.26	3461.5
2450.7	3435.5
2449.14	3412.5
2447.58	3384
2446.02	3429
2444.46	3356.5
2442.9	3418.5
2441.33	3341
2439.77	3366.5
2438.21	3357
2436.65	3370
2435.08	3369.5
2433.52	3305
2431.96	3324.5
2430.39	3325
2428.83	3320
2427.26	3287.5
2425.7	3275.5
2424.13	3245
2422.56	3291
2421	3277.5
2419.43	3230
2417.86	3248
2416.3	3207.5
2414.73	3217
2413.16	3259.5
2411.59	3213
2410.02	3224.5
2408.45	3213
2406.88	3214
2405.31	3177
2403.74	3224
2402.17	3180
2400.6	3201.5
2399.02	3185
2397.45	3174.5
2395.88	3162.5
2394.3	3117.5
2392.73	3167.5
2391.16	3125.5
2389.58	3133
2388.01	3110
2386.43	3080
2384.86	3124
2383.28	3131
2381.7	3120.5
2380.13	3087
2378.55	3113.5
2376.97	3083
2375.39	3077.5
2373.81	3115
2372.23	3050
2370.65	3000.5
2369.07	3054
2367.49	3060.5
2365.91	2974
2364.33	2979
2362.75	2995
2361.17	3007.5
2359.59	3030
2358.01	2966
2356.42	2984
2354.84	2938.5
2353.25	2969.5
2351.67	2975.5
2350.09	2984
2348.5	2979.5
2346.92	2967.5
2345.33	2935
2343.74	2960
2342.16	2915.5
2340.57	2947.5
2338.98	2918
2337.39	2897.5
2335.81	2886
2334.22	2884
2332.63	2881.5
2331.04	2890.5
2329.45	2873.5
2327.86	2888.5
2326.27	2892.5
2324.68	2861
2323.09	2827
2321.49	2845
2319.9	2822.5
2318.31	2834.5
2316.72	2841
2315.12	2775
2313.53	2783
2311.93	2747
2310.34	2761.5
2308.74	2775.5
2307.15	2744
2305.55	2731.5
2303.96	2747.5
2302.36	2672
2300.76	2693.5
2299.17	2666
2297.57	2678
2295.97	2650.5
2294.37	2614.5
2292.77	2640
2291.17	2633.5
2289.57	2632.5
2287.97	2669
2286.37	2647
2284.77	2625
2283.17	2636
2281.57	2617.5
2279.96	2591
2278.36	2616.5
2276.76	2587
2275.15	2572
2273.55	2585.5
2271.95	2589
2270.34	2552
2268.74	2551.5
2267.13	2580
2265.52	2518.5
2263.92	2503
2262.31	2503.5
2260.7	2470.5
2259.1	2487
2257.49	2456.5
2255.88	2488
2254.27	2456.5
2252.66	2482.5
2251.05	2441.5
2249.44	2443
2247.83	2490.5
2246.22	2482.5
2244.61	2426
2243	2456
2241.39	2438
2239.77	2455.5
2238.16	2397
2236.55	2426
2234.93	2417.5
2233.32	2411.5
2231.7	2365.5
2230.09	2379.5
2228.47	2379
2226.86	2359
2225.24	2350.5
2223.63	2346.5
2222.01	2314.5
2220.39	2319.5
2218.77	2320
2217.16	2346.5
2215.54	2282.5
2213.92	2306.5
2212.3	2237.5
2210.68	2282
2209.06	2254
2207.44	2244.5
2205.82	2240
2204.19	2209.5
2202.57	2239
2200.95	2224.5
2199.33	2186.5
2197.7	2218
2196.08	2216
2194.46	2247.5
2192.83	2181
2191.21	2167
2189.58	2158.5
2187.96	2144.5
2186.33	2160.5
2184.7	2162
2183.08	2135.5
2181.45	2118.5
2179.82	2123
2178.19	2140
2176.57	2130
2174.94	2129.5
2173.31	2126
2171.68	2107.5
2170.05	2075
2168.42	2050.5
2166.79	2050.5
2165.16	2058
2163.52	2079
2161.89	2033
2160.26	2039.5
2158.63	2065
2156.99	2039.5
2155.36	2039
2153.73	2047
2152.09	2025
2150.46	2006.5
2148.82	1979.5
2147.18	1983.5
2145.55	1957
2143.91	1955
2142.27	1934.5
2140.64	1991.5
2139	1942.5
2137.36	1940.5
2135.72	1939
2134.08	1934
2132.44	1902.5
2130.8	1878
2129.16	1894.5
2127.52	1862
2125.88	1888
2124.24	1857
2122.6	1817.5
2120.95	1851
2119.31	1828.5
2117.67	1838
2116.02	1820
2114.38	1797
2112.74	1804.5
2111.09	1810
2109.45	1762
2107.8	1800.5
2106.15	1770
2104.51	1745
2102.86	1753
2101.21	1746.5
2099.56	1744
2097.92	1735
2096.27	1736.5
2094.62	1760
2092.97	1733.5
2091.32	1709
2089.67	1762
2088.02	1727.5
2086.37	1742.5
2084.72	1722.5
2083.06	1696.5
2081.41	1711
2079.76	1692
2078.1	1681.5
2076.45	1696
2074.8	1669
2073.14	1658
2071.49	1654.5
2069.83	1682
2068.18	1656.5
2066.52	1628.5
2064.86	1640
2063.21	1658
2061.55	1650.5
2059.89	1660
2058.23	1636.5
2056.57	1632
2054.92	1626
2053.26	1627
2051.6	1646
2049.94	1616
2048.27	1608
2046.61	1602.5
2044.95	1604
2043.29	1594.5
2041.63	1586
2039.97	1545
2038.3	1553.5
2036.64	1536.5
2034.97	1556.5
2033.31	1492
2031.64	1513
2029.98	1529.5
2028.31	1513
2026.65	1502.5
2024.98	1503
2023.31	1486.5
2021.65	1504.5
2019.98	1490.5
2018.31	1471.5
2016.64	1432.5
2014.97	1460.5
2013.3	1465.5
2011.63	1449
2009.96	1484.5
2008.29	1466.5
2006.62	1478
2004.95	1445
2003.28	1448.5
2001.6	1436
1999.93	1409.5
1998.26	1393
1996.58	1439.5
1994.91	1401.5
1993.24	1404
1991.56	1406.5
1989.89	1422
1988.21	1407
1986.53	1394
1984.86	1375.5
1983.18	1384
1981.5	1361
1979.82	1343.5
1978.15	1342.5
1976.47	1349.5
1974.79	1320
1973.11	1338
1971.43	1305
1969.75	1344.5
1968.07	1331
1966.38	1294.5
1964.7	1329.5
1963.02	1327
1961.34	1294
1959.66	1292.5
1957.97	1302.5
1956.29	1297
1954.6	1283.5
1952.92	1273.5
1951.23	1275.5
1949.55	1275.5
1947.86	1277
1946.18	1247
1944.49	1259
1942.8	1233
1941.11	1213
1939.43	1222
1937.74	1205.5
1936.05	1223
1934.36	1203
1932.67	1211.5
1930.98	1199
1929.29	1205
1927.6	1189.5
1925.91	1173
1924.21	1150.5
1922.52	1153.5
1920.83	1167.5
1919.14	1133
1917.44	1151
1915.75	1141
1914.05	1170
1912.36	1153.5
1910.66	1172.5
1908.97	1144.5
1907.27	1143.5
1905.58	1158
1903.88	1094
1902.18	1108
1900.48	1117.5
1898.79	1095
1897.09	1103.5
1895.39	1118
1893.69	1087.5
1891.99	1094
1890.29	1100.5
1888.59	1072
1886.89	1092
1885.18	1041
1883.48	1062
1881.78	1050
1880.08	1044.5
1878.37	1042.5
1876.67	1054.5
1874.96	999.5
1873.26	1034
1871.55	1031.5
1869.85	1004.5
1868.14	1039.5
1866.44	1008.5
1864.73	990.5
1863.02	994
1861.32	991.5
1859.61	995.5
1857.9	941.5
1856.19	991
1854.48	975
1852.77	981.5
1851.06	986
1849.35	965.5
1847.64	966.5
1845.93	956.5
1844.21	948.5
1842.5	942
1840.79	915.5
1839.08	950
1837.36	936.5
1835.65	924.5
1833.93	956
1832.22	904
1830.5	941
1828.79	923
1827.07	911
1825.36	933.5
1823.64	911.5
1821.92	903
1820.2	883.5
1818.48	929
1816.77	884.5
1815.05	886.5
1813.33	910
1811.61	886
1809.89	882
1808.16	879
1806.44	877
1804.72	857.5
1803	861
1801.28	830.5
1799.55	834.5
1797.83	865.5
1796.11	854
1794.38	858
1792.66	852
1790.93	834.5
1789.21	825
1787.48	839.5
1785.75	841.5
1784.03	831.5
1782.3	804
1780.57	793.5
1778.84	811.5
1777.11	808.5
1775.38	810
1773.66	831
1771.93	825
1770.19	806
1768.46	818.5
1766.73	813
1765	813.5
1763.27	821
1761.54	817.5
1759.8	828
1758.07	846
1756.34	871.5
1754.6	877
1752.87	889
1751.13	886
1749.4	905
1747.66	917.5
1745.92	888
1744.19	875.5
1742.45	888
1740.71	850.5
1738.97	863
1737.23	817
1735.49	831.5
1733.75	805
1732.01	815.5
1730.27	785.5
1728.53	800
1726.79	750
1725.05	747.5
1723.31	763.5
1721.57	733
1719.82	746
1718.08	740.5
1716.34	737.5
1714.59	761.5
1712.85	737
1711.1	739.5
1709.36	728
1707.61	716.5
1705.86	724
1704.12	728
1702.37	703
1700.62	702.5
1698.87	700.5
1697.12	687
1695.37	689
1693.62	696.5
1691.87	680.5
1690.12	669
1688.37	678
1686.62	678.5
1684.87	691
1683.12	678
1681.36	672
1679.61	700.5
1677.86	726
1676.1	683.5
1674.35	724.5
1672.59	743.5
1670.84	753
1669.08	785
1667.33	815
1665.57	869
1663.81	913
1662.06	980.5
1660.3	1026.5
1658.54	1065.5
1656.78	1082
1655.02	1073
1653.26	1003.5
1651.5	1010.5
1649.74	891
1647.98	853
1646.22	795
1644.46	772
1642.7	721
1640.93	693
1639.17	687
1637.41	681
1635.64	656.5
1633.88	657.5
1632.11	644.5
1630.35	627.5
1628.58	642
1626.81	634.5
1625.05	601.5
1623.28	602
1621.51	581
1619.75	596.5
1617.98	616
1616.21	604.5
1614.44	592.5
1612.67	587
1610.9	596.5
1609.13	583
1607.36	570
1605.58	544.5
1603.81	580.5
1602.04	567.5
1600.27	555.5
1598.49	561
1596.72	555
1594.95	570.5
1593.17	576
1591.4	579
1589.62	560.5
1587.84	566.5
1586.07	563.5
1584.29	551
1582.51	542
1580.74	551
1578.96	546
1577.18	541
1575.4	565
1573.62	568
1571.84	568.5
1570.06	561
1568.28	561.5
1566.5	540
1564.72	523
1562.93	536
1561.15	537.5
1559.37	512
1557.58	554
1555.8	545
1554.02	539
1552.23	537
1550.45	523.5
1548.66	516.5
1546.87	534.5
1545.09	513
1543.3	527
1541.51	522
1539.72	499
1537.94	522
1536.15	518.5
1534.36	508.5
1532.57	525.5
1530.78	515.5
1528.99	506.5
1527.2	526.5
1525.4	519.5
1523.61	499
1521.82	503.5
1520.03	503
1518.23	516
1516.44	506
1514.65	514
1512.85	522
1511.06	503
1509.26	526
1507.46	514
1505.67	537.5
1503.87	503
1502.07	509.5
1500.28	508.5
1498.48	528.5
1496.68	532
1494.88	545.5
1493.08	542.5
1491.28	547
1489.48	557.5
1487.68	567
1485.88	608.5
1484.08	609
1482.27	614.5
1480.47	631
1478.67	655.5
1476.86	673
1475.06	721
1473.25	774.5
1471.45	837.5
1469.64	895.5
1467.84	973
1466.03	1033.5
1464.23	1075.5
1462.42	1130
1460.61	1182.5
1458.8	1235.5
1456.99	1305
1455.18	1315.5
1453.37	1346
1451.56	1403
1449.75	1429.5
1447.94	1517.5
1446.13	1543.5
1444.32	1612.5
1442.51	1660
1440.7	1661
1438.88	1610.5
1437.07	1552.5
1435.26	1409
1433.44	1281
1431.63	1145.5
1429.81	1002
1427.99	900.5
1426.18	820
1424.36	780
1422.54	757.5
1420.73	691.5
1418.91	660.5
1417.09	637
1415.27	617
1413.45	558.5
1411.63	582.5
1409.81	554.5
1407.99	529
1406.17	534.5
1404.35	528
1402.53	528
1400.7	517
1398.88	485.5
1397.06	484.5
1395.23	475
1393.41	461.5
1391.58	457
1389.76	462
1387.93	486.5
1386.11	490
1384.28	463.5
1382.45	484.5
1380.62	463
1378.8	464.5
1376.97	481.5
1375.14	474
1373.31	481.5
1371.48	492.5
1369.65	518.5
1367.82	522
1365.99	528
1364.16	508
1362.32	521
1360.49	503.5
1358.66	513.5
1356.82	498.5
1354.99	480.5
1353.16	479
1351.32	488
1349.48	499.5
1347.65	513
1345.81	512.5
1343.98	493
1342.14	518.5
1340.3	512
1338.46	524
1336.62	515.5
1334.79	559
1332.95	560.5
1331.11	578.5
1329.27	597
1327.42	645
1325.58	654
1323.74	696.5
1321.9	723
1320.06	769
1318.21	787
1316.37	844.5
1314.53	896.5
1312.68	931.5
1310.84	1035
1308.99	1099.5
1307.15	1147.5
1305.3	1181
1303.45	1236
1301.61	1251
1299.76	1239.5
1297.91	1196.5
1296.06	1116
1294.21	1022.5
1292.36	922
1290.51	856.5
1288.66	801
1286.81	792
1284.96	785.5
1283.11	784.5
1281.26	786.5
1279.4	784.5
1277.55	793
1275.7	780
1273.84	800.5
1271.99	751
1270.13	791.5
1268.28	810
1266.42	768
1264.56	781
1262.71	796.5
1260.85	765
1258.99	761
1257.13	728.5
1255.27	692
1253.41	626
1251.56	641.5
1249.7	581.5
1247.83	569
1245.97	556.5
1244.11	542.5
1242.25	533
1240.39	544
1238.52	529
1236.66	499
1234.8	506
1232.93	482.5
1231.07	472
1229.2	468
1227.34	432
1225.47	441.5
1223.6	432
1221.74	427.5
1219.87	444
1218	431
1216.13	424
1214.26	426.5
1212.39	413.5
1210.53	420
1208.65	402
1206.78	399
1204.91	392
1203.04	406.5
1201.17	403.5
1199.3	413.5
1197.42	391
1195.55	432
1193.68	395.5
1191.8	408.5
1189.93	377
1188.05	398.5
1186.17	395
1184.3	370
1182.42	385
1180.54	415
1178.67	393
1176.79	408.5
1174.91	392
1173.03	417
1171.15	408
1169.27	415
1167.39	398.5
1165.51	400.5
1163.63	390
1161.75	398
1159.86	425
1157.98	412.5
1156.1	421
1154.21	415
1152.33	422
1150.44	429
1148.56	423
1146.67	417
1144.79	430
1142.9	418.5
1141.01	428.5
1139.12	430
1137.24	451.5
1135.35	473.5
1133.46	508
1131.57	540
1129.68	594
1127.79	573.5
1125.9	609
1124.01	598.5
1122.12	573.5
1120.22	575
1118.33	574
1116.44	560
1114.54	591
1112.65	569.5
1110.75	573
1108.86	593.5
1106.96	610.5
1105.07	620.5
1103.17	634.5
1101.27	636
1099.38	678.5
1097.48	710
1095.58	750.5
1093.68	784.5
1091.78	804
1089.88	852.5
1087.98	865
1086.08	904
1084.18	933.5
1082.28	908.5
1080.38	921
1078.47	897
1076.57	855.5
1074.67	876
1072.76	838
1070.86	864
1068.95	872
1067.05	901.5
1065.14	909.5
1063.24	888.5
1061.33	828.5
1059.42	766.5
1057.51	720.5
1055.6	664
1053.7	648.5
1051.79	624
1049.88	629
1047.97	637.5
1046.06	639.5
1044.14	615
1042.23	610
1040.32	622
1038.41	599.5
1036.5	595.5
1034.58	589.5
1032.67	573.5
1030.75	586.5
1028.84	584.5
1026.92	576.5
1025.01	586
1023.09	589
1021.17	566.5
1019.26	569.5
1017.34	566
1015.42	564.5
1013.5	541.5
1011.58	520
1009.66	507
1007.74	514
1005.82	522
1003.9	513.5
1001.98	530
1000.06	509.5
998.134	520
996.212	488
994.288	517
992.364	492
990.44	508
988.515	505
986.589	532
984.663	550.5
982.737	564.5
980.81	610
978.883	627
976.955	659
975.027	655
973.098	663
971.169	660.5
969.239	648
967.308	642
965.378	637.5
963.447	644.5
961.516	651.5
959.583	654.5
957.65	660
955.718	643.5
953.784	657.5
951.85	672
949.916	651.5
947.981	658
946.045	660
944.109	666.5
942.173	674
940.236	683.5
938.298	674.5
936.36	705
934.422	700
932.484	698.5
930.544	666
928.604	632
926.664	666
924.724	640
922.782	618.5
920.84	659.5
918.898	627.5
916.955	647
915.012	643
913.068	657.5
911.124	664
909.18	634
907.235	669.5
905.289	644
903.343	667.5
901.397	671
899.45	652
897.502	681
895.554	733
893.605	730.5
891.657	773
889.707	789
887.758	782
885.807	780
883.856	780
881.905	755
879.953	783
878.001	788.5
876.048	796
874.094	812
872.14	819
870.186	811
868.232	812
866.276	807
864.321	784
862.365	774.5
860.408	762
858.451	761
856.493	737
854.535	750
852.576	757
850.617	762
848.658	740.5
846.698	760.5
844.737	749
842.776	751
840.814	725
838.852	689
836.89	679.5
834.927	663
832.963	628
830.999	623
829.035	613.5
827.07	591
825.105	561
823.139	563
821.172	560.5
819.206	541
817.238	515
815.27	513
813.301	475.5
811.333	470
809.363	458.5
807.394	440
805.424	453
803.453	434
801.482	432.5
799.509	412
797.538	412
795.565	393
793.592	383.5
791.618	369.5
789.643	350
787.669	369.5
785.693	369.5
783.718	365.5
781.742	368
779.765	358.5
777.788	383.5
775.811	379.5
773.832	373
771.853	375
769.875	366
767.895	357
765.915	343.5
763.934	363.5
761.953	352
759.972	359
757.99	380
756.007	350
754.024	375
752.041	357
750.056	359
748.072	354.5
746.087	346
744.102	365.5
742.116	348
740.13	348.5
738.143	363.5
736.155	366
734.167	380
732.179	394.5
730.19	371.5
728.2	391
726.21	389.5
724.22	364.5
722.229	373.5
720.237	366
718.246	366
716.253	344.5
714.26	355
712.267	344
710.273	358
708.279	344.5
706.284	339.5
704.289	324
702.293	326
700.296	313.5
698.3	299
696.303	302
694.305	299
692.307	311
690.307	295
688.308	325
686.309	304.5
684.308	311.5
682.308	298
680.306	314
678.304	300
676.302	285.5
674.3	291
672.296	295.5
670.293	321
668.289	309.5
666.284	333.5
664.278	334
662.273	351
660.266	338.5
658.26	315
656.252	334.5
654.244	323.5
652.237	307.5
650.227	314.5
648.218	307.5
646.209	317
644.198	331.5
642.188	343.5
640.177	352
638.165	349.5
636.153	339
634.14	339.5
632.128	335
630.113	348
628.099	336.5
626.085	349.5
624.07	348
622.054	371.5
620.038	380.5
618.021	368
616.004	392
613.986	385.5
611.968	390.5
609.949	399
607.93	374.5
605.911	398.5
603.891	371
601.87	396.5
599.848	390.5
597.827	385.5
595.805	404.5
593.782	397
591.759	394.5
589.735	397.5
587.711	406
585.687	373.5
583.661	365.5
581.636	352
579.609	362.5
577.583	365.5
575.555	337
573.527	345
571.5	365
569.471	368
567.441	376.5
565.412	362
563.382	370.5
561.351	353
559.32	360
557.289	357
555.257	366.5
553.223	370.5
551.19	415
549.157	399.5
547.122	428.5
545.088	433.5
543.053	443.5
541.017	486.5
538.981	490.5
536.943	544.5
534.907	619.5
532.869	744.5
530.831	972
528.792	1353.5
526.752	2040
524.713	2993
522.673	3871.5
520.632	4009
518.591	3386.5
516.549	2512.5
514.507	1764
512.464	1232.5
510.42	891.5
508.377	709.5
506.332	633
504.288	573.5
502.242	541.5
500.196	538.5
498.15	498.5
496.104	495
494.056	498
492.008	495.5
489.96	464
487.911	451.5
485.862	449.5
483.812	455.5
481.761	467
479.71	478.5
477.659	470.5
475.607	476
473.555	465.5
471.502	463
469.448	441.5
467.395	456.5
465.34	452
463.285	442
461.23	450.5
459.174	462
457.118	475.5
455.061	485.5
453.003	469
450.945	477
448.887	490.5
446.828	475.5
444.768	464.5
442.708	462
440.647	461
438.587	479
436.525	488
434.463	502.5
432.4	508
430.337	525
428.274	528
426.21	499.5
424.145	513
422.079	506.5
420.014	500.5
417.948	509.5
415.882	506.5
413.814	525.5
411.746	526.5
409.679	531
407.609	558
405.54	555.5
403.47	573
401.401	547.5
399.329	534
397.258	527.5
395.187	531
393.114	553
391.041	533
388.968	543.5
386.895	536.5
384.82	550
382.745	566
380.67	582.5
378.594	574.5
376.517	578
374.44	566
372.363	562
370.286	549.5
368.207	554
366.128	567
364.049	568.5
361.969	583
359.888	591
357.807	611.5
355.725	607
353.643	597
351.561	592.5
349.477	595.5
347.394	593
345.31	591.5
343.226	595
341.141	622
339.055	609
336.968	649
334.882	653
332.795	639
330.707	648
328.618	645
326.53	635.5
324.44	650
322.351	664.5
320.26	692.5
318.17	688
316.078	723
313.987	745.5
311.895	765.5
309.802	762
307.708	809.5
305.614	828.5
303.52	812.5
301.425	813.5
299.329	813
297.233	811
295.137	802.5
293.039	791
290.942	794.5
288.844	846.5
286.745	808
284.647	830
282.546	822
280.446	824
278.346	833
276.245	842
274.143	843.5
272.041	833.5
269.939	887.5
267.835	894.5
265.731	906
263.627	926.5
261.522	912.5
259.417	949.5
257.311	942
255.204	941
253.098	963
250.99	943
248.882	980
246.774	998.5
244.664	1004
242.555	1030.5
240.445	1050.5
238.334	1030
236.223	1075
234.112	1083
232	1069.5
229.888	1086.5
227.775	1094.5
225.661	1123.5
223.546	1133.5
221.431	1147.5
219.316	1184
217.201	1174
215.084	1181.5
212.967	1179.5
210.85	1182.5
208.732	1177.5
206.614	1195
204.495	1187
202.375	1158
200.256	1174.5
198.135	1186
196.014	1188.5
193.893	1194.5
191.771	1178
189.648	1184.5
187.525	1173
185.401	1179
183.277	1184
181.152	1180.5
179.027	1166
176.901	1176.5
174.775	1189
172.648	1225
170.521	1208
168.393	1228
166.265	1274.5
164.136	1309.5
162.007	1296
159.876	1326.5
157.746	1351.5
155.615	1345
153.483	1403
151.351	1432.5
149.219	1439
147.086	1478.5
144.952	1545.5
142.818	1559
140.684	1611
138.548	1677
136.413	1700.5
134.276	1763.5
132.139	1815.5
130.002	1843
127.864	1910
125.725	1967
123.587	2066.5
121.447	2133
119.307	2226
117.166	2316
115.026	2363
112.885	2429.5
110.743	2580.5
108.6	2620.5
106.456	2684
104.313	2731.5
102.169	2683
100.023	2619.5
97.8789	2453
95.7328	2289
93.5869	2018
91.4392	1732
89.2919	1449
87.1447	1155
84.9959	884.5
