3528.51	187.75
3527.23	227.25
3525.95	251
3524.67	239.75
3523.39	225
3522.1	262.75
3520.82	234.5
3519.54	243.75
3518.26	247.5
3516.97	251.5
3515.69	226.5
3514.4	251.75
3513.12	235.25
3511.84	260
3510.55	247.75
3509.26	234
3507.98	260.25
3506.69	253.25
3505.41	229.25
3504.12	270
3502.83	264.25
3501.54	295.5
3500.26	250.5
3498.97	274.5
3497.68	279
3496.39	256.75
3495.1	290
3493.81	277.5
3492.52	284.25
3491.23	257.25
3489.94	290.25
3488.65	304
3487.36	301
3486.07	284.5
3484.78	330.25
3483.49	314.5
3482.19	335.75
3480.9	303.25
3479.61	338.25
3478.31	330.25
3477.02	363.25
3475.73	351.75
3474.43	330.75
3473.14	347.75
3471.84	362.25
3470.54	338.25
3469.25	361.75
3467.95	363
3466.66	341.5
3465.36	363
3464.06	375.5
3462.76	350.5
3461.46	349.75
3460.17	352.5
3458.87	389.75
3457.57	381.25
3456.27	362.5
3454.97	366.25
3453.67	380.25
3452.37	376.5
3451.07	391
3449.77	389.5
3448.47	397.75
3447.16	411
3445.86	398
3444.56	430.25
3443.26	449
3441.95	424
3440.65	421
3439.35	425
3438.04	465.75
3436.74	442.25
3435.43	446.75
3434.13	457.5
3432.82	482
3431.52	492
3430.21	498.25
3428.9	494
3427.6	480
3426.29	514.75
3424.98	510.5
3423.67	530
3422.36	518.75
3421.06	544.5
3419.75	532.25
3418.44	553
3417.13	591
3415.82	551.75
3414.51	598.25
3413.2	557.5
3411.88	589.5
3410.57	611.25
3409.26	618.25
3407.95	573
3406.64	561.75
3405.32	620
3404.01	631.5
3402.7	624
3401.38	616.5
3400.07	633
3398.75	633.75
3397.44	627.5
3396.12	642.25
3394.81	635.5
3393.49	643
3392.18	658.25
3390.86	704.75
3389.54	666
3388.23	674.5
3386.91	683.5
3385.59	672.25
3384.27	680
3382.95	690.25
3381.63	710.75
3380.31	704.5
3378.99	714.5
3377.67	737
3376.35	714.5
3375.03	741
3373.71	751
3372.39	726.75
3371.07	736
3369.75	754
3368.42	763
3367.1	752.25
3365.78	773.5
3364.45	771
3363.13	794.5
3361.81	803.75
3360.48	797.75
3359.16	788.5
3357.83	796.5
3356.51	797.75
3355.18	802
3353.85	809
3352.53	815.5
3351.2	818.75
3349.87	843.5
3348.54	824
3347.22	807
3345.89	833
3344.56	828.25
3343.23	845.25
3341.9	850
3340.57	822.25
3339.24	831.75
3337.91	852.5
3336.58	857.75
3335.25	852.5
3333.92	895
3332.58	841
3331.25	871
3329.92	878.75
3328.59	861.25
3327.25	853.5
3325.92	901.25
3324.58	891.5
3323.25	904.25
3321.92	863.5
3320.58	896.75
3319.25	918
3317.91	931.75
3316.57	907
3315.24	919
3313.9	932.25
3312.56	930.5
3311.23	928.5
3309.89	956.25
3308.55	940.5
3307.21	925
3305.87	954
3304.53	937.5
3303.19	949.5
3301.85	951
3300.51	963
3299.17	956.5
3297.83	969.25
3296.49	981
3295.15	948
3293.81	992.25
3292.46	990.5
3291.12	995
3289.78	988.75
3288.43	1009.5
3287.09	978.25
3285.75	983
3284.4	1040
3283.06	1009.5
3281.71	988.5
3280.37	1015
3279.02	1027
3277.67	1035.5
3276.33	1028.75
3274.98	1049
3273.63	1023.5
3272.28	1059.75
3270.94	1042.75
3269.59	1080
3268.24	1103.75
3266.89	1060.25
3265.54	1092.25
3264.19	1106.75
3262.84	1090.5
3261.49	1132
3260.14	1154
3258.79	1179.25
3257.44	1203.75
3256.08	1209.75
3254.73	1239.25
3253.38	1277.25
3252.03	1289.75
3250.67	1298.75
3249.32	1348.5
3247.96	1395
3246.61	1436
3245.26	1439.75
3243.9	1478
3242.54	1501.5
3241.19	1566.5
3239.83	1587.25
3238.48	1648.75
3237.12	1686.5
3235.76	1710
3234.41	1731.5
3233.05	1811.75
3231.69	1769.25
3230.33	1869
3228.97	1935.25
3227.61	1962.25
3226.25	1971.5
3224.89	2041.25
3223.53	2085.25
3222.17	2129.75
3220.81	2097.75
3219.45	2102.75
3218.09	2172.5
3216.72	2171
3215.36	2222.25
3214	2208.5
3212.63	2254
3211.27	2259.75
3209.91	2281.25
3208.54	2332.25
3207.18	2327.75
3205.81	2331
3204.45	2381
3203.08	2397
3201.71	2363.5
3200.35	2384.75
3198.98	2435
3197.61	2446.25
3196.25	2449
3194.88	2436.5
3193.51	2464.25
3192.14	2495.25
3190.77	2502
3189.4	2482.75
3188.03	2551.75
3186.66	2544.75
3185.29	2522.25
3183.92	2567
3182.55	2548.75
3181.18	2583.75
3179.81	2570.25
3178.44	2623.25
3177.06	2628.75
3175.69	2623.5
3174.32	2621.75
3172.94	2620.5
3171.57	2664
3170.2	2700.5
3168.82	2703
3167.45	2747.25
3166.07	2752
3164.69	2779
3163.32	2806.75
3161.94	2843.75
3160.56	2850
3159.19	2848.5
3157.81	2834.25
3156.43	2905.25
3155.05	2932.25
3153.67	2940.25
3152.3	2959.75
3150.92	3002.5
3149.54	3045.5
3148.16	3022.5
3146.78	3035.25
3145.4	3090
3144.01	3101
3142.63	3122.75
3141.25	3120.75
3139.87	3146
3138.49	3163.25
3137.1	3186.5
3135.72	3215.25
3134.34	3231.5
3132.95	3233
3131.57	3288.25
3130.18	3319
3128.8	3324.25
3127.41	3339.5
3126.03	3345
3124.64	3361.5
3123.25	3383.5
3121.87	3404.5
3120.48	3411.5
3119.09	3445.25
3117.7	3477
3116.32	3474.5
3114.93	3494.25
3113.54	3549
3112.15	3533
3110.76	3519
3109.37	3579.5
3107.98	3607.75
3106.59	3606
3105.2	3611.5
3103.8	3621
3102.41	3619.75
3101.02	3659
3099.63	3673
3098.23	3694
3096.84	3666
3095.45	3715
3094.05	3727.5
3092.66	3779.5
3091.26	3772.5
3089.87	3802
3088.47	3809
3087.08	3774.25
3085.68	3815.5
3084.28	3857.25
3082.89	3848
3081.49	3819.5
3080.09	3880.75
3078.69	3893
3077.3	3875.25
3075.9	3910
3074.5	3904
3073.1	3880.5
3071.7	3959.75
3070.3	3946.75
3068.9	3923.75
3067.5	3906.25
3066.09	3994.75
3064.69	3956.25
3063.29	3984
3061.89	4028.75
3060.48	3977
3059.08	3996.5
3057.68	4002.75
3056.27	4025.25
3054.87	4003.75
3053.46	4021.5
3052.06	4061
3050.65	4088.75
3049.25	4066.25
3047.84	4087
3046.44	4081.25
3045.03	4085.25
3043.62	4171.75
3042.21	4124.75
3040.81	4165
3039.4	4190.5
3037.99	4175
3036.58	4195.75
3035.17	4200.75
3033.76	4221.75
3032.35	4197.75
3030.94	4231.75
3029.53	4249.5
3028.12	4265
3026.71	4222
3025.29	4250.25
3023.88	4224.75
3022.47	4271.25
3021.06	4272
3019.64	4278.25
3018.23	4269
3016.82	4306.5
3015.4	4302
3013.99	4309.75
3012.57	4326
3011.15	4309.75
3009.74	4346.75
3008.32	4353
3006.91	4382.5
3005.49	4410.5
3004.07	4350.75
3002.65	4421.25
3001.24	4400
2999.82	4444.5
2998.4	4471.75
2996.98	4457.5
2995.56	4460.5
2994.14	4510
2992.72	4514.75
2991.3	4514.5
2989.88	4583
2988.46	4591.75
2987.03	4611.75
2985.61	4643.75
2984.19	4628.5
2982.77	4661.75
2981.34	4715.5
2979.92	4749
2978.49	4742.25
2977.07	4769
2975.65	4800.25
2974.22	4837.5
2972.79	4789.5
2971.37	4893
2969.94	4878.75
2968.52	4930
2967.09	4920.75
2965.66	4946.75
2964.23	4937.25
2962.81	4949.75
2961.38	4988
2959.95	4979.75
2958.52	5021
2957.09	5055.25
2955.66	5065
2954.23	5050.5
2952.8	5100.75
2951.37	5013.5
2949.94	5172.5
2948.5	5086.5
2947.07	5158.5
2945.64	5124.5
2944.21	5146.5
2942.77	5119.25
2941.34	5184.75
2939.91	5148.25
2938.47	5204.75
2937.04	5263.75
2935.6	5256
2934.17	5268
2932.73	5316.5
2931.29	5341
2929.86	5309.75
2928.42	5340.25
2926.98	5355
2925.55	5428.5
2924.11	5430.75
2922.67	5375.5
2921.23	5430.25
2919.79	5420
2918.35	5465.5
2916.91	5449.25
2915.47	5460
2914.03	5388.5
2912.59	5488
2911.15	5472.75
2909.71	5475.5
2908.26	5454.25
2906.82	5511.5
2905.38	5511
2903.94	5545
2902.49	5491.25
2901.05	5566
2899.6	5548.25
2898.16	5550.25
2896.71	5532
2895.27	5617.75
2893.82	5561.25
2892.38	5585.75
2890.93	5618.75
2889.48	5635.5
2888.03	5607.75
2886.59	5638.5
2885.14	5634.75
2883.69	5633.75
2882.24	5643.5
2880.79	5618.75
2879.34	5702.25
2877.89	5725.5
2876.44	5649.5
2874.99	5620.75
2873.54	5702.25
2872.09	5696.25
2870.64	5674
2869.18	5666.5
2867.73	5646.5
2866.28	5685
2864.83	5636.5
2863.37	5771
2861.92	5716.25
2860.46	5666.5
2859.01	5693
2857.55	5726.25
2856.1	5737
2854.64	5728.5
2853.19	5741.75
2851.73	5723.75
2850.27	5707
2848.81	5703.5
2847.36	5730.75
2845.9	5736.75
2844.44	5714.75
2842.98	5650.75
2841.52	5659
2840.06	5662
2838.6	5600.5
2837.14	5558.75
2835.68	5551
2834.22	5521.75
2832.76	5481.25
2831.3	5508.5
2829.83	5511.5
2828.37	5542
2826.91	5500
2825.44	5475.25
2823.98	5484
2822.52	5403.25
2821.05	5413.5
2819.59	5430.75
2818.12	5464.25
2816.66	5412.5
2815.19	5348.25
2813.72	5395.25
2812.26	5330.25
2810.79	5346.5
2809.32	5365
2807.85	5355.5
2806.38	5354.5
2804.92	5314.75
2803.45	5306.5
2801.98	5318.25
2800.51	5360.25
2799.04	5339.5
2797.57	5323.75
2796.1	5293.5
2794.62	5370
2793.15	5260.25
2791.68	5268.5
2790.21	5296.5
2788.73	5315.75
2787.26	5279.75
2785.79	5284.25
2784.31	5331.25
2782.84	5325.5
2781.36	5329.5
2779.89	5340.75
2778.41	5345
2776.94	5401
2775.46	5348.5
2773.99	5334.75
2772.51	5363.25
2771.03	5331
2769.55	5429.75
2768.07	5373.5
2766.6	5405.25
2765.12	5382
2763.64	5420.5
2762.16	5431
2760.68	5428
2759.2	5375.75
2757.72	5439.5
2756.24	5408
2754.75	5429.5
2753.27	5384.75
2751.79	5394.5
2750.31	5395.5
2748.82	5357
2747.34	5353.25
2745.86	5319.5
2744.37	5359.5
2742.89	5352.25
2741.4	5361
2739.92	5318
2738.43	5314.5
2736.94	5363.75
2735.46	5258
2733.97	5330
2732.48	5316.75
2731	5346
2729.51	5326.5
2728.02	5342
2726.53	5314.75
2725.04	5303.5
2723.55	5330
2722.06	5233.75
2720.57	5321.25
2719.08	5287
2717.59	5311.25
2716.1	5288
2714.61	5283.5
2713.11	5312
2711.62	5288.75
2710.13	5342.75
2708.64	5266
2707.14	5265
2705.65	5249.75
2704.15	5197.25
2702.66	5211.25
2701.16	5279.5
2699.67	5188.75
2698.17	5164
2696.67	5204.25
2695.18	5231.75
2693.68	5203.5
2692.18	5166.25
2690.69	5169
2689.19	5179.5
2687.69	5155
2686.19	5123.25
2684.69	5134.75
2683.19	5161
2681.69	5137.5
2680.19	5141
2678.69	5067.75
2677.19	5070.75
2675.68	5114.25
2674.18	5029.75
2672.68	5119.75
2671.18	5097.25
2669.67	5069.25
2668.17	5032
2666.66	5058.25
2665.16	5085.75
2663.66	5051
2662.15	5040.5
2660.64	5058
2659.14	5015.25
2657.63	5052.5
2656.13	5026.5
2654.62	4977.75
2653.11	5020.5
2651.6	4997.75
2650.09	4988.5
2648.58	5004.5
2647.08	5004.25
2645.57	4978.75
2644.06	4926.75
2642.55	4965
2641.04	4947
2639.52	4902.5
2638.01	4898.5
2636.5	4904
2634.99	4866.75
2633.48	4857.75
2631.96	4832.25
2630.45	4827.25
2628.94	4841.75
2627.42	4803.25
2625.91	4796
2624.39	4839.75
2622.88	4771.25
2621.36	4767.25
2619.85	4750.5
2618.33	4748.5
2616.81	4758.75
2615.3	4727
2613.78	4799.75
2612.26	4696.5
2610.74	4763.75
2609.22	4713.75
2607.7	4773.5
2606.18	4688.5
2604.66	4695.5
2603.14	4694.75
2601.62	4680
2600.1	4673
2598.58	4622.25
2597.06	4604.25
2595.54	4624
2594.01	4563.25
2592.49	4549.25
2590.97	4544
2589.44	4516
2587.92	4541.25
2586.39	4545.5
2584.87	4546.75
2583.34	4527
2581.82	4563.25
2580.29	4524.25
2578.76	4529.25
2577.24	4441.5
2575.71	4534
2574.18	4503.75
2572.65	4495.75
2571.13	4512
2569.6	4517
2568.07	4505.5
2566.54	4428.75
2565.01	4469
2563.48	4501
2561.95	4487.75
2560.42	4493.25
2558.88	4409
2557.35	4434.25
2555.82	4386
2554.29	4400.25
2552.75	4407
2551.22	4379.5
2549.69	4393.25
2548.15	4391
2546.62	4388.75
2545.08	4384
2543.55	4342
2542.01	4298.75
2540.47	4281.5
2538.94	4383.5
2537.4	4278
2535.86	4254.5
2534.33	4275.75
2532.79	4273.75
2531.25	4287.75
2529.71	4175
2528.17	4184.25
2526.63	4189.75
2525.09	4117.75
2523.55	4158
2522.01	4152.25
2520.47	4140.25
2518.92	4137
2517.38	4135
2515.84	4113.75
2514.3	4096.25
2512.75	4096.5
2511.21	4065.75
2509.67	4044
2508.12	4071
2506.58	4063
2505.03	4073.5
2503.49	4012.75
2501.94	4040.25
2500.39	3986
2498.85	3989
2497.3	3943
2495.75	3952.75
2494.2	3974
2492.65	3949
2491.11	3990.5
2489.56	3887.25
2488.01	3952
2486.46	3881.5
2484.91	3897
2483.36	3852.5
2481.8	3894.5
2480.25	3915.75
2478.7	3838.75
2477.15	3840.75
2475.6	3855.5
2474.04	3739.5
2472.49	3796.25
2470.93	3728.25
2469.38	3794.5
2467.83	3735
2466.27	3690.75
2464.71	3687
2463.16	3729.25
2461.6	3673.25
2460.05	3667.25
2458.49	3634.75
2456.93	3630.25
2455.37	3641.75
2453.81	3617
2452.26	3562.25
2450.7	3588.5
2449.14	3557.75
2447.58	3554.5
2446.02	3563.75
2444.46	3547.75
2442.9	3504.75
2441.33	3511
2439.77	3475.5
2438.21	3490.75
2436.65	3448.25
2435.08	3507.5
2433.52	3453.75
2431.96	3481
2430.39	3431
2428.83	3410
2427.26	3424
2425.7	3430
2424.13	3404
2422.56	3389.25
2421	3424.25
2419.43	3365.5
2417.86	3379
2416.3	3354.5
2414.73	3368.5
2413.16	3369.5
2411.59	3352.5
2410.02	3304.5
2408.45	3359.75
2406.88	3287.5
2405.31	3305
2403.74	3310.5
2402.17	3347.25
2400.6	3296.5
2399.02	3367
2397.45	3310.75
2395.88	3259.5
2394.3	3308
2392.73	3237.25
2391.16	3219.25
2389.58	3252.5
2388.01	3212
2386.43	3253.25
2384.86	3212.75
2383.28	3223.25
2381.7	3221.75
2380.13	3225.75
2378.55	3216.5
2376.97	3233.25
2375.39	3201
2373.81	3228.75
2372.23	3211.75
2370.65	3188
2369.07	3202.25
2367.49	3147.25
2365.91	3182.25
2364.33	3149
2362.75	3166.75
2361.17	3150.5
2359.59	3136.75
2358.01	3153
2356.42	3118
2354.84	3138.75
2353.25	3118.5
2351.67	3077.75
2350.09	3066.5
2348.5	3054
2346.92	3065.75
2345.33	3089
2343.74	3061.75
2342.16	2996.75
2340.57	3058.25
2338.98	3039.25
2337.39	3033
2335.81	2990
2334.22	3027.25
2332.63	3024.5
2331.04	2964
2329.45	2972.25
2327.86	2963.75
2326.27	3017
2324.68	2973.75
2323.09	2978.75
2321.49	2949.5
2319.9	2952
2318.31	2885.5
2316.72	2940.25
2315.12	2937.75
2313.53	2905.5
2311.93	2867.75
2310.34	2872.25
2308.74	2893.25
2307.15	2778
2305.55	2842.25
2303.96	2807
2302.36	2859
2300.76	2823
2299.17	2805.25
2297.57	2831.5
2295.97	2745
2294.37	2753.5
2292.77	2781
2291.17	2749
2289.57	2722.25
2287.97	2739.75
2286.37	2714.25
2284.77	2722.5
2283.17	2711.25
2281.57	2704
2279.96	2714
2278.36	2714.5
2276.76	2724
2275.15	2726.75
2273.55	2687.25
2271.95	2652.5
2270.34	2654.5
2268.74	2659.5
2267.13	2661
2265.52	2646.5
2263.92	2562.25
2262.31	2577
2260.7	2620
2259.1	2555.25
2257.49	2604.25
2255.88	2544
2254.27	2603.5
2252.66	2562
2251.05	2569
2249.44	2566.25
2247.83	2561.5
2246.22	2530
2244.61	2559
2243	2526.75
2241.39	2504.5
2239.77	2517.25
2238.16	2505.75
2236.55	2545.25
2234.93	2533.75
2233.32	2512.25
2231.7	2471
2230.09	2461.25
2228.47	2436
2226.86	2433.5
2225.24	2428.25
2223.63	2461.75
2222.01	2391
2220.39	2413.75
2218.77	2431.5
2217.16	2418.75
2215.54	2387.75
2213.92	2309.25
2212.3	2363.25
2210.68	2353
2209.06	2351
2207.44	2317.25
2205.82	2329.5
2204.19	2282.75
2202.57	2306.25
2200.95	2318.75
2199.33	2308.25
2197.7	2265.5
2196.08	2250.75
2194.46	2274
2192.83	2291.25
2191.21	2273
2189.58	2251
2187.96	2283.75
2186.33	2255.75
2184.7	2251.25
2183.08	2265.5
2181.45	2239.75
2179.82	2253.5
2178.19	2237.5
2176.57	2221.75
2174.94	2185.25
2173.31	2162
2171.68	2198.5
2170.05	2190.75
2168.42	2169.25
2166.79	2205.25
2165.16	2161
2163.52	2155
2161.89	2150
2160.26	2104
2158.63	2129.5
2156.99	2106
2155.36	2134
2153.73	2089.5
2152.09	2084.5
2150.46	2117.5
2148.82	2103.5
2147.18	2079.75
2145.55	2062.25
2143.91	2060.25
2142.27	2067.25
2140.64	2009.25
2139	2007.75
2137.36	2013
2135.72	2032.75
2134.08	2009.5
2132.44	1980.5
2130.8	2008
2129.16	1970
2127.52	1951.5
2125.88	1913
2124.24	1938.5
2122.6	1922.5
2120.95	1934.75
2119.31	1961
2117.67	1893.5
2116.02	1889
2114.38	1899.75
2112.74	1870.5
2111.09	1897.5
2109.45	1834
2107.8	1864.5
2106.15	1887.25
2104.51	1846
2102.86	1849.25
2101.21	1811.75
2099.56	1824.5
2097.92	1815.25
2096.27	1817.75
2094.62	1830.75
2092.97	1837
2091.32	1786
2089.67	1818.5
2088.02	1824.25
2086.37	1815.5
2084.72	1807
2083.06	1779
2081.41	1802
2079.76	1793.5
2078.1	1796
2076.45	1763
2074.8	1812
2073.14	1781
2071.49	1776.25
2069.83	1737.5
2068.18	1729.5
2066.52	1738.75
2064.86	1740.25
2063.21	1715.75
2061.55	1755
2059.89	1738.25
2058.23	1702.25
2056.57	1722.75
2054.92	1717.5
2053.26	1717.5
2051.6	1720.25
2049.94	1726.5
2048.27	1734.5
2046.61	1683.5
2044.95	1681.5
2043.29	1656
2041.63	1660.25
2039.97	1650.25
2038.3	1622.5
2036.64	1628.75
2034.97	1642.5
2033.31	1641
2031.64	1612.5
2029.98	1573
2028.31	1575
2026.65	1617
2024.98	1564.75
2023.31	1518
2021.65	1557.5
2019.98	1582.75
2018.31	1555
2016.64	1528.25
2014.97	1558.25
2013.3	1551.5
2011.63	1537.5
2009.96	1540.75
2008.29	1513
2006.62	1511
2004.95	1494.75
2003.28	1493.25
2001.6	1490.75
1999.93	1496.25
1998.26	1488.75
1996.58	1489
1994.91	1495.5
1993.24	1479.5
1991.56	1433.5
1989.89	1460.5
1988.21	1447.25
1986.53	1462.25
1984.86	1417.25
1983.18	1431.75
1981.5	1470.75
1979.82	1431
1978.15	1417.25
1976.47	1418.75
1974.79	1420.75
1973.11	1401.5
1971.43	1396.25
1969.75	1389.25
1968.07	1400.75
1966.38	1374.5
1964.7	1367
1963.02	1379.25
1961.34	1384.75
1959.66	1357.25
1957.97	1378.5
1956.29	1394.75
1954.6	1355.75
1952.92	1335.75
1951.23	1313.75
1949.55	1341.25
1947.86	1297
1946.18	1305.5
1944.49	1341.75
1942.8	1302.75
1941.11	1319.25
1939.43	1284.75
1937.74	1291
1936.05	1306
1934.36	1266
1932.67	1260.5
1930.98	1257.5
1929.29	1271.75
1927.6	1232.5
1925.91	1265.75
1924.21	1263
1922.52	1242.5
1920.83	1239.5
1919.14	1254
1917.44	1218
1915.75	1228
1914.05	1247.75
1912.36	1222
1910.66	1220.5
1908.97	1234.5
1907.27	1235.75
1905.58	1224.5
1903.88	1218
1902.18	1192.5
1900.48	1171
1898.79	1170
1897.09	1177
1895.39	1155.75
1893.69	1175.25
1891.99	1151.25
1890.29	1141.25
1888.59	1142.75
1886.89	1144.5
1885.18	1142.5
1883.48	1125
1881.78	1116.25
1880.08	1141
1878.37	1101
1876.67	1096.5
1874.96	1097
1873.26	1097.5
1871.55	1122.75
1869.85	1055.5
1868.14	1081.25
1866.44	1097
1864.73	1095
1863.02	1028.25
1861.32	1081.25
1859.61	1051
1857.9	1031.25
1856.19	1052
1854.48	1038.5
1852.77	1062
1851.06	1016.5
1849.35	1036
1847.64	1029.75
1845.93	1004.25
1844.21	999.25
1842.5	1021.75
1840.79	1022.75
1839.08	1003
1837.36	1000
1835.65	1016
1833.93	1016.25
1832.22	968.5
1830.5	976
1828.79	993.25
1827.07	983.5
1825.36	981
1823.64	977.75
1821.92	985
1820.2	966.5
1818.48	947
1816.77	963.75
1815.05	960
1813.33	961
1811.61	906
1809.89	937.5
1808.16	946.5
1806.44	971.25
1804.72	927
1803	911.5
1801.28	930.75
1799.55	914
1797.83	917.5
1796.11	904.5
1794.38	911.25
1792.66	929.75
1790.93	918.5
1789.21	898.25
1787.48	883.5
1785.75	859
1784.03	934.5
1782.3	885.25
1780.57	921
1778.84	898.5
1777.11	880
1775.38	879.25
1773.66	863
1771.93	864.25
1770.19	854
1768.46	888.5
1766.73	873.5
1765	892
1763.27	902.75
1761.54	889.25
1759.8	877.25
1758.07	926.5
1756.34	907.75
1754.6	929.5
1752.87	915.25
1751.13	885.25
1749.4	929
1747.66	962.75
1745.92	936.25
1744.19	958.25
1742.45	950.75
1740.71	909.25
1738.97	883.25
1737.23	912
1735.49	866
1733.75	852.5
1732.01	839.75
1730.27	847.5
1728.53	877.25
1726.79	833.5
1725.05	856.75
1723.31	824.5
1721.57	826.75
1719.82	813.75
1718.08	815.5
1716.34	796.25
1714.59	810.25
1712.85	779.5
1711.1	793.5
1709.36	779.75
1707.61	782.5
1705.86	777.25
1704.12	808.25
1702.37	798.75
1700.62	772.25
1698.87	759.5
1697.12	786
1695.37	759.5
1693.62	759.25
1691.87	758.75
1690.12	773.5
1688.37	742.5
1686.62	745
1684.87	756.5
1683.12	770.5
1681.36	783.5
1679.61	749.5
1677.86	763.5
1676.1	751
1674.35	780
1672.59	786.75
1670.84	817.75
1669.08	807.25
1667.33	840.5
1665.57	906.5
1663.81	915
1662.06	993
1660.3	992.5
1658.54	1035.25
1656.78	1042.5
1655.02	1046.5
1653.26	990
1651.5	938
1649.74	923
1647.98	867.25
1646.22	807.5
1644.46	832.25
1642.7	773.5
1640.93	782
1639.17	746
1637.41	732.75
1635.64	731.75
1633.88	704.5
1632.11	719.75
1630.35	729.25
1628.58	686
1626.81	686.5
1625.05	671
1623.28	701.75
1621.51	691.25
1619.75	666.5
1617.98	680.5
1616.21	657
1614.44	656.25
1612.67	656.75
1610.9	678.5
1609.13	666
1607.36	640.75
1605.58	640.25
1603.81	667
1602.04	664.75
1600.27	637.75
1598.49	651.75
1596.72	648.75
1594.95	641.5
1593.17	590
1591.4	652.75
1589.62	654
1587.84	633.5
1586.07	647.75
1584.29	674.5
1582.51	648
1580.74	613
1578.96	630.25
1577.18	621
1575.4	687
1573.62	648.75
1571.84	604.5
1570.06	626
1568.28	613.5
1566.5	608
1564.72	609
1562.93	617
1561.15	620.5
1559.37	623
1557.58	637
1555.8	619.25
1554.02	613
1552.23	606.25
1550.45	616.5
1548.66	612.5
1546.87	603
1545.09	613.75
1543.3	585
1541.51	602
1539.72	571
1537.94	590
1536.15	572
1534.36	575.75
1532.57	571
1530.78	594.5
1528.99	575
1527.2	595.25
1525.4	599
1523.61	569.75
1521.82	633
1520.03	581
1518.23	591.5
1516.44	609
1514.65	580.5
1512.85	598.25
1511.06	618
1509.26	616
1507.46	593
1505.67	599.25
1503.87	582
1502.07	600.75
1500.28	622
1498.48	634.5
1496.68	618.5
1494.88	644
1493.08	618
1491.28	602.25
1489.48	646.25
1487.68	655.75
1485.88	646.75
1484.08	680.25
1482.27	679.5
1480.47	708.25
1478.67	719.75
1476.86	776
1475.06	733.75
1473.25	817.5
1471.45	832.25
1469.64	892
1467.84	929.5
1466.03	982.5
1464.23	1041.5
1462.42	1094.25
1460.61	1123.5
1458.8	1142
1456.99	1215.25
1455.18	1222.75
1453.37	1241.75
1451.56	1290.25
1449.75	1324.75
1447.94	1353.25
1446.13	1414.25
1444.32	1438
1442.51	1494.25
1440.7	1472
1438.88	1436.5
1437.07	1406.75
1435.26	1285.25
1433.44	1171.5
1431.63	1057.25
1429.81	980.75
1427.99	891
1426.18	820.75
1424.36	777
1422.54	748
1420.73	734
1418.91	732
1417.09	679.5
1415.27	682.75
1413.45	669
1411.63	654.5
1409.81	613.25
1407.99	605
1406.17	626.75
1404.35	607
1402.53	583.5
1400.7	596.75
1398.88	569.25
1397.06	560.5
1395.23	566
1393.41	519.5
1391.58	558
1389.76	545
1387.93	571
1386.11	535.5
1384.28	553.25
1382.45	530.5
1380.62	585.75
1378.8	607
1376.97	552.75
1375.14	582.5
1373.31	585.25
1371.48	594.5
1369.65	612.75
1367.82	577.75
1365.99	574.5
1364.16	583.5
1362.32	584.5
1360.49	580
1358.66	587.75
1356.82	583.75
1354.99	555.5
1353.16	582.5
1351.32	581.5
1349.48	568.25
1347.65	574.75
1345.81	588.5
1343.98	571.25
1342.14	590.25
1340.3	559.25
1338.46	585.25
1336.62	593.75
1334.79	620
1332.95	625
1331.11	634
1329.27	657
1327.42	666
1325.58	685.5
1323.74	729.5
1321.9	751.25
1320.06	770.75
1318.21	771
1316.37	832
1314.53	893.25
1312.68	916.25
1310.84	973.25
1308.99	1010
1307.15	1079.5
1305.3	1060.25
1303.45	1137.5
1301.61	1160.75
1299.76	1151.75
1297.91	1134
1296.06	1073
1294.21	985.25
1292.36	923.75
1290.51	863.75
1288.66	824.5
1286.81	794
1284.96	796
1283.11	811
1281.26	762
1279.4	796
1277.55	803.5
1275.7	799
1273.84	800
1271.99	812
1270.13	832
1268.28	819.75
1266.42	815.5
1264.56	782.75
1262.71	793
1260.85	789.25
1258.99	789.5
1257.13	743.75
1255.27	700
1253.41	721.25
1251.56	685.75
1249.7	664.75
1247.83	645.5
1245.97	644.5
1244.11	643.5
1242.25	600.75
1240.39	614.5
1238.52	615
1236.66	555.75
1234.8	575.25
1232.93	549.5
1231.07	566.25
1229.2	560.25
1227.34	558.5
1225.47	549.5
1223.6	512.75
1221.74	519.25
1219.87	549.25
1218	559
1216.13	529.5
1214.26	493.5
1212.39	528.75
1210.53	541.75
1208.65	504.75
1206.78	531.75
1204.91	525.5
1203.04	509
1201.17	500.75
1199.3	506
1197.42	523
1195.55	502.75
1193.68	526
1191.8	510.5
1189.93	490
1188.05	519.75
1186.17	513.75
1184.3	501
1182.42	524
1180.54	515.5
1178.67	499.5
1176.79	515.75
1174.91	534
1173.03	487.25
1171.15	539
1169.27	512.25
1167.39	529
1165.51	506.25
1163.63	525.25
1161.75	502.5
1159.86	501.5
1157.98	512.5
1156.1	529
1154.21	523
1152.33	524.75
1150.44	519.5
1148.56	517
1146.67	538.25
1144.79	544.5
1142.9	509.25
1141.01	561.25
1139.12	552.5
1137.24	560.5
1135.35	596
1133.46	604.5
1131.57	666.5
1129.68	672
1127.79	682.25
1125.9	714
1124.01	651.5
1122.12	662.25
1120.22	660.5
1118.33	655
1116.44	666.5
1114.54	652.5
1112.65	648.5
1110.75	655
1108.86	635.5
1106.96	658
1105.07	683.25
1103.17	721.25
1101.27	716.5
1099.38	732.25
1097.48	767
1095.58	819
1093.68	785.25
1091.78	840
1089.88	853
1087.98	887
1086.08	899.5
1084.18	885.75
1082.28	899.5
1080.38	874.25
1078.47	867
1076.57	853.75
1074.67	856.25
1072.76	872
1070.86	862.75
1068.95	886.5
1067.05	901.5
1065.14	886.25
1063.24	900.5
1061.33	857.25
1059.42	800.25
1057.51	781
1055.6	719.75
1053.7	729.5
1051.79	695
1049.88	696
1047.97	705.25
1046.06	669
1044.14	675.5
1042.23	674
1040.32	666
1038.41	675.25
1036.5	672.5
1034.58	673.25
1032.67	702.25
1030.75	651.5
1028.84	642.75
1026.92	666
1025.01	652.5
1023.09	673.5
1021.17	669.75
1019.26	678
1017.34	669.75
1015.42	634.5
1013.5	627
1011.58	647
1009.66	625.75
1007.74	608.25
1005.82	642
1003.9	636
1001.98	633
1000.06	623.5
998.134	624
996.212	639.25
994.288	640
992.364	618.25
990.44	633
988.515	642
986.589	658.25
984.663	673.75
982.737	703
980.81	726.75
978.883	733.75
976.955	761.5
975.027	766.25
973.098	786.5
971.169	752.25
969.239	739.5
967.308	783.75
965.378	754.5
963.447	751.5
961.516	745.25
959.583	774.5
957.65	762.5
955.718	781.75
953.784	775
951.85	766.25
949.916	765.5
947.981	772.25
946.045	793.25
944.109	823.75
942.173	802.75
940.236	778
938.298	817.25
936.36	796.25
934.422	767.75
932.484	781
930.544	747
928.604	738
926.664	727
924.724	730.5
922.782	736.5
920.84	731.75
918.898	717.75
916.955	777
915.012	716.75
913.068	718
911.124	738.5
909.18	745
907.235	747.25
905.289	723.75
903.343	776.5
901.397	758
899.45	779.75
897.502	776.5
895.554	792.5
893.605	830.25
891.657	867.5
889.707	831.75
887.758	857
885.807	811.25
883.856	856.25
881.905	827.25
879.953	842.5
878.001	871
876.048	850.75
874.094	872.25
872.14	891
870.186	852.75
868.232	838.5
866.276	888
864.321	889.25
862.365	841
860.408	849.75
858.451	839.75
856.493	847.25
854.535	841
852.576	815.5
850.617	840.75
848.658	833
846.698	841.25
844.737	820.25
842.776	831
840.814	838.5
838.852	803
836.89	772.5
834.927	805.25
832.963	755.25
830.999	728.25
829.035	728.25
827.07	701.25
825.105	701
823.139	677.25
821.172	690.25
819.206	680.5
817.238	640.25
815.27	649.75
813.301	646.5
811.333	668.75
809.363	630.25
807.394	593.25
805.424	623.25
803.453	598.5
801.482	589
799.509	565.25
797.538	593.5
795.565	555.25
793.592	554.75
791.618	540.25
789.643	587.75
787.669	520
785.693	515.25
783.718	546
781.742	591.25
779.765	523.75
777.788	563.25
775.811	552
773.832	568.5
771.853	541.25
769.875	548
767.895	555
765.915	534.75
763.934	530.5
761.953	543
759.972	550.75
757.99	524.75
756.007	553
754.024	556.5
752.041	518.25
750.056	538.75
748.072	563.25
746.087	537.25
744.102	565.75
742.116	515.5
740.13	552
738.143	583.25
736.155	544
734.167	562.25
732.179	584.75
730.19	556.75
728.2	577.75
726.21	557
724.22	576
722.229	568.5
720.237	561.75
718.246	558.5
716.253	527
714.26	548.25
712.267	537.5
710.273	539
708.279	530.25
706.284	534.25
704.289	522.75
702.293	533
700.296	535
698.3	513.5
696.303	510.5
694.305	551.25
692.307	540
690.307	505
688.308	514.5
686.309	497.75
684.308	525.25
682.308	541.25
680.306	548.75
678.304	513
676.302	529
674.3	524.25
672.296	533.5
670.293	522.5
668.289	530
666.284	519.75
664.278	541.25
662.273	549.25
660.266	552.5
658.26	531.25
656.252	572
654.244	581
652.237	563.25
650.227	558
648.218	566.25
646.209	554
644.198	544.25
642.188	568.25
640.177	557
638.165	564.75
636.153	552
634.14	583.75
632.128	554.75
630.113	586.25
628.099	600
626.085	597.75
624.07	607
622.054	577.25
620.038	598
618.021	593.75
616.004	617.5
613.986	615.25
611.968	615.25
609.949	606.75
607.93	617.5
605.911	648.5
603.891	608.75
601.87	613.25
599.848	595.25
597.827	610
595.805	604
593.782	638
591.759	587.5
589.735	609
587.711	587.75
585.687	622.25
583.661	594.75
581.636	585.75
579.609	591.75
577.583	614.25
575.555	611.75
573.527	586.25
571.5	610.25
569.471	597.75
567.441	589.75
565.412	604.25
563.382	613.75
561.351	620.25
559.32	612.75
557.289	610
555.257	615.25
553.223	639.75
551.19	667.25
549.157	655.75
547.122	681.25
545.088	684.75
543.053	718.25
541.017	754
538.981	780.5
536.943	805.5
534.907	907.25
532.869	1085.5
530.831	1345.25
528.792	1749.5
526.752	2501.25
524.713	3542.5
522.673	4515.5
520.632	4632.25
518.591	4009.25
516.549	3060
514.507	2147.25
512.464	1546.5
510.42	1207.75
508.377	1005.5
506.332	850.5
504.288	818.25
502.242	817
500.196	746
498.15	772
496.104	753.25
494.056	731
492.008	711.25
489.96	698.75
487.911	711
485.862	709.5
483.812	731.5
481.761	721.5
479.71	701.75
477.659	680.5
475.607	680.25
473.555	722.5
471.502	707.5
469.448	693.5
467.395	681.5
465.34	688.25
463.285	711.5
461.23	717
459.174	711
457.118	679.5
455.061	723.5
453.003	724
450.945	695.75
448.887	728.25
446.828	735.75
444.768	724.25
442.708	740.25
440.647	730
438.587	726
436.525	722.25
434.463	750.5
432.4	750.75
430.337	744.75
428.274	763
426.21	747.25
424.145	781.25
422.079	779.5
420.014	741.75
417.948	770.25
415.882	803.5
413.814	770.75
411.746	782.5
409.679	784.5
407.609	787.5
405.54	753.25
403.47	798.75
401.401	782.75
399.329	790
397.258	768
395.187	791.25
393.114	788.75
391.041	789.5
388.968	781.75
386.895	771.25
384.82	781.25
382.745	806.5
380.67	779.5
378.594	790
376.517	815.75
374.44	787.5
372.363	798
370.286	783
368.207	829.5
366.128	807
364.049	852.5
361.969	826.25
359.888	831.25
357.807	811.75
355.725	842.25
353.643	860.75
351.561	840.75
349.477	833.75
347.394	873.25
345.31	851
343.226	860.25
341.141	847.5
339.055	857.5
336.968	845.25
334.882	876.5
332.795	866.25
330.707	856.25
328.618	905.5
326.53	868.75
324.44	887.75
322.351	904.75
320.26	927.75
318.17	934
316.078	960.75
313.987	985.5
311.895	979.75
309.802	1003
307.708	1016
305.614	1057
303.52	1051
301.425	1066
299.329	1070.5
297.233	1025
295.137	1035.75
293.039	1056.75
290.942	1034.5
288.844	1036.75
286.745	996
284.647	1042.25
282.546	1056.75
280.446	1035
278.346	1068.5
276.245	1074
274.143	1035.25
272.041	1099.5
269.939	1043.75
267.835	1073.75
265.731	1086.75
263.627	1041.5
261.522	1084.5
259.417	1102.25
257.311	1089.75
255.204	1060
253.098	1129.75
250.99	1114
248.882	1140.25
246.774	1155.5
244.664	1155.5
242.555	1195
240.445	1198
238.334	1186.5
236.223	1218.5
234.112	1198
232	1256.25
229.888	1248.25
227.775	1236.25
225.661	1254
223.546	1301.75
221.431	1245.25
219.316	1275.25
217.201	1291.5
215.084	1281.25
212.967	1285
210.85	1273.25
208.732	1289.5
206.614	1352.25
204.495	1315.5
202.375	1317.25
200.256	1305.5
198.135	1313
196.014	1283.25
193.893	1286.75
191.771	1272
189.648	1285.25
187.525	1304.5
185.401	1278
183.277	1328.25
181.152	1290.25
179.027	1283.75
176.901	1316
174.775	1324.75
172.648	1348.75
170.521	1362.25
168.393	1348.75
166.265	1366.25
164.136	1399.75
162.007	1393.25
159.876	1412.5
157.746	1439.25
155.615	1448.25
153.483	1490
151.351	1489.75
149.219	1552.75
147.086	1584.25
144.952	1588.75
142.818	1627.25
140.684	1707.25
138.548	1718.25
136.413	1742.25
134.276	1790.75
132.139	1849.5
130.002	1879
127.864	1907
125.725	1974.5
123.587	2049.25
121.447	2095.5
119.307	2142.25
117.166	2193
115.026	2272
112.885	2376.75
110.743	2394
108.6	2499.5
106.456	2544.75
104.313	2544.5
102.169	2513.75
100.023	2435.75
97.8789	2317.75
95.7328	2094
93.5869	1878.5
91.4392	1582.5
89.2919	1297.75
87.1447	1022.5
84.9959	826.5
