3528.51	132.5
3527.23	152
3525.95	149.5
3524.67	163
3523.39	168
3522.1	168.5
3520.82	159.5
3519.54	180
3518.26	173.5
3516.97	156.5
3515.69	160
3514.4	157
3513.12	148
3511.84	165
3510.55	162.5
3509.26	161
3507.98	177.5
3506.69	164.5
3505.41	181.5
3504.12	188.5
3502.83	171
3501.54	176
3500.26	169
3498.97	174
3497.68	171.5
3496.39	189
3495.1	199.5
3493.81	195.5
3492.52	209.5
3491.23	195.5
3489.94	214
3488.65	213
3487.36	196
3486.07	195
3484.78	194.5
3483.49	197
3482.19	210.5
3480.9	226
3479.61	227.5
3478.31	227
3477.02	232
3475.73	233
3474.43	231
3473.14	228
3471.84	217
3470.54	219.5
3469.25	230
3467.95	236
3466.66	236.5
3465.36	246.5
3464.06	248
3462.76	250.5
3461.46	245
3460.17	246
3458.87	255
3457.57	232.5
3456.27	250
3454.97	249
3453.67	242
3452.37	251.5
3451.07	266.5
3449.77	251
3448.47	265
3447.16	279
3445.86	268
3444.56	275.5
3443.26	280
3441.95	280
3440.65	278
3439.35	290.5
3438.04	304.5
3436.74	309.5
3435.43	311
3434.13	324.5
3432.82	328.5
3431.52	333.5
3430.21	316
3428.9	321
3427.6	343.5
3426.29	339.5
3424.98	345.5
3423.67	357.5
3422.36	364.5
3421.06	372
3419.75	373.5
3418.44	384
3417.13	378.5
3415.82	405
3414.51	386.5
3413.2	378
3411.88	365
3410.57	389.5
3409.26	369
3407.95	415
3406.64	406.5
3405.32	413
3404.01	423
3402.7	428
3401.38	437
3400.07	425
3398.75	430.5
3397.44	428
3396.12	402
3394.81	426
3393.49	429
3392.18	446.5
3390.86	442.5
3389.54	449
3388.23	459
3386.91	458.5
3385.59	467.5
3384.27	467.5
3382.95	452
3381.63	450
3380.31	463.5
3378.99	477.5
3377.67	484
3376.35	489.5
3375.03	520
3373.71	503
3372.39	483
3371.07	504
3369.75	505
3368.42	483
3367.1	479
3365.78	506
3364.45	522.5
3363.13	504
3361.81	524
3360.48	532.5
3359.16	537
3357.83	537.5
3356.51	558
3355.18	565
3353.85	520.5
3352.53	550
3351.2	540.5
3349.87	526.5
3348.54	548.5
3347.22	547.5
3345.89	566
3344.56	566
3343.23	561.5
3341.9	569
3340.57	564.5
3339.24	565.5
3337.91	537
3336.58	567
3335.25	552
3333.92	550
3332.58	570.5
3331.25	570
3329.92	575
3328.59	588
3327.25	581
3325.92	590.5
3324.58	584
3323.25	578.5
3321.92	594
3320.58	584.5
3319.25	589.5
3317.91	577.5
3316.57	611
3315.24	603
3313.9	623.5
3312.56	621.5
3311.23	626.5
3309.89	635
3308.55	633.5
3307.21	630.5
3305.87	622.5
3304.53	618
3303.19	615
3301.85	648
3300.51	642
3299.17	642
3297.83	678.5
3296.49	685
3295.15	647
3293.81	671.5
3292.46	660.5
3291.12	643
3289.78	668
3288.43	653.5
3287.09	672
3285.75	667
3284.4	671.5
3283.06	678
3281.71	684.5
3280.37	683.5
3279.02	676.5
3277.67	682
3276.33	686.5
3274.98	702
3273.63	691.5
3272.28	687
3270.94	716
3269.59	724
3268.24	734
3266.89	733
3265.54	759
3264.19	760
3262.84	776
3261.49	766
3260.14	768.5
3258.79	808
3257.44	796.5
3256.08	825
3254.73	843.5
3253.38	842.5
3252.03	885.5
3250.67	914
3249.32	928.5
3247.96	973.5
3246.61	983.5
3245.26	986.5
3243.9	1024
3242.54	1042.5
3241.19	1080
3239.83	1081.5
3238.48	1123
3237.12	1136
3235.76	1163
3234.41	1210
3233.05	1249
3231.69	1270
3230.33	1273.5
3228.97	1287.5
3227.61	1339.5
3226.25	1351.5
3224.89	1398
3223.53	1431
3222.17	1419
3220.81	1485
3219.45	1471
3218.09	1494
3216.72	1501.5
3215.36	1526
3214	1512
3212.63	1521
3211.27	1555.5
3209.91	1537.5
3208.54	1575
3207.18	1605.5
3205.81	1597
3204.45	1605.5
3203.08	1640
3201.71	1669.5
3200.35	1616
3198.98	1641
3197.61	1651
3196.25	1655
3194.88	1663.5
3193.51	1640.5
3192.14	1660
3190.77	1701.5
3189.4	1691
3188.03	1703
3186.66	1730.5
3185.29	1731.5
3183.92	1723
3182.55	1718
3181.18	1729
3179.81	1730
3178.44	1783.5
3177.06	1732.5
3175.69	1792.5
3174.32	1819
3172.94	1830
3171.57	1853.5
3170.2	1835.5
3168.82	1816
3167.45	1856
3166.07	1896
3164.69	1860.5
3163.32	1857
3161.94	1930.5
3160.56	1947
3159.19	1975
3157.81	1974.5
3156.43	1990
3155.05	1989
3153.67	2031
3152.3	2005.5
3150.92	2023
3149.54	2032.5
3148.16	2033
3146.78	2119
3145.4	2086
3144.01	2130
3142.63	2121
3141.25	2130.5
3139.87	2180
3138.49	2149
3137.1	2138
3135.72	2171
3134.34	2159.5
3132.95	2195
3131.57	2228
3130.18	2225.5
3128.8	2278
3127.41	2247.5
3126.03	2243
3124.64	2337
3123.25	2328.5
3121.87	2351.5
3120.48	2360
3119.09	2330.5
3117.7	2332.5
3116.32	2356
3114.93	2369.5
3113.54	2370
3112.15	2422
3110.76	2425.5
3109.37	2417
3107.98	2433.5
3106.59	2441
3105.2	2452
3103.8	2487.5
3102.41	2467.5
3101.02	2505
3099.63	2513
3098.23	2497
3096.84	2543
3095.45	2496
3094.05	2526
3092.66	2563
3091.26	2551
3089.87	2542
3088.47	2505
3087.08	2607.5
3085.68	2530.5
3084.28	2593
3082.89	2559.5
3081.49	2562
3080.09	2612.5
3078.69	2615.5
3077.3	2624.5
3075.9	2654
3074.5	2655
3073.1	2643.5
3071.7	2672
3070.3	2639
3068.9	2649
3067.5	2657.5
3066.09	2719
3064.69	2701.5
3063.29	2713
3061.89	2743
3060.48	2737.5
3059.08	2745
3057.68	2696
3056.27	2729.5
3054.87	2757.5
3053.46	2751
3052.06	2720
3050.65	2748
3049.25	2776.5
3047.84	2785.5
3046.44	2788.5
3045.03	2799.5
3043.62	2802.5
3042.21	2838.5
3040.81	2814
3039.4	2859.5
3037.99	2846
3036.58	2828
3035.17	2855
3033.76	2858.5
3032.35	2855.5
3030.94	2872
3029.53	2879
3028.12	2885
3026.71	2906.5
3025.29	2897.5
3023.88	2910
3022.47	2915.5
3021.06	2923
3019.64	2915.5
3018.23	2929
3016.82	2946
3015.4	2976
3013.99	2952.5
3012.57	3000.5
3011.15	2966
3009.74	2999.5
3008.32	3009
3006.91	3000.5
3005.49	2995.5
3004.07	3011.5
3002.65	2978.5
3001.24	3048.5
2999.82	3045.5
2998.4	3117.5
2996.98	3077.5
2995.56	3125
2994.14	3115.5
2992.72	3112
2991.3	3167.5
2989.88	3140.5
2988.46	3199.5
2987.03	3171.5
2985.61	3222.5
2984.19	3221.5
2982.77	3262
2981.34	3268
2979.92	3297.5
2978.49	3312.5
2977.07	3331
2975.65	3374.5
2974.22	3316
2972.79	3354.5
2971.37	3374
2969.94	3361
2968.52	3406.5
2967.09	3436
2965.66	3458.5
2964.23	3447
2962.81	3507
2961.38	3513
2959.95	3506
2958.52	3473
2957.09	3544.5
2955.66	3566.5
2954.23	3521.5
2952.8	3554.5
2951.37	3553.5
2949.94	3614
2948.5	3643
2947.07	3663
2945.64	3647
2944.21	3661.5
2942.77	3642
2941.34	3673.5
2939.91	3690
2938.47	3689.5
2937.04	3697.5
2935.6	3716.5
2934.17	3790.5
2932.73	3842
2931.29	3802
2929.86	3892.5
2928.42	3795.5
2926.98	3865
2925.55	3878
2924.11	3884
2922.67	3875.5
2921.23	3891.5
2919.79	3873
2918.35	3908
2916.91	3898
2915.47	3937
2914.03	3960
2912.59	3959.5
2911.15	3991.5
2909.71	3954
2908.26	3949
2906.82	3921.5
2905.38	4002.5
2903.94	3985
2902.49	4058
2901.05	4043.5
2899.6	4062
2898.16	4069
2896.71	4109
2895.27	4083.5
2893.82	4081.5
2892.38	4123.5
2890.93	4101
2889.48	4059
2888.03	4090.5
2886.59	4132
2885.14	4128
2883.69	4118
2882.24	4141
2880.79	4156.5
2879.34	4152
2877.89	4169.5
2876.44	4109.5
2874.99	4125
2873.54	4108
2872.09	4163
2870.64	4131
2869.18	4120.5
2867.73	4084.5
2866.28	4132
2864.83	4133.5
2863.37	4134
2861.92	4120
2860.46	4151.5
2859.01	4158.5
2857.55	4121
2856.1	4172.5
2854.64	4165.5
2853.19	4152.5
2851.73	4116.5
2850.27	4177.5
2848.81	4192
2847.36	4175
2845.9	4150
2844.44	4124
2842.98	4045.5
2841.52	4059
2840.06	4020
2838.6	3904.5
2837.14	3937
2835.68	3900.5
2834.22	3929.5
2832.76	3856.5
2831.3	3880.5
2829.83	3854.5
2828.37	3900
2826.91	3784
2825.44	3834.5
2823.98	3751
2822.52	3767
2821.05	3746.5
2819.59	3706.5
2818.12	3693.5
2816.66	3704.5
2815.19	3723
2813.72	3755
2812.26	3730
2810.79	3671.5
2809.32	3621.5
2807.85	3637
2806.38	3678.5
2804.92	3692
2803.45	3654
2801.98	3686
2800.51	3644
2799.04	3680.5
2797.57	3637
2796.1	3671.5
2794.62	3647.5
2793.15	3614
2791.68	3600
2790.21	3549.5
2788.73	3585.5
2787.26	3616.5
2785.79	3597.5
2784.31	3654
2782.84	3605
2781.36	3633.5
2779.89	3661.5
2778.41	3672.5
2776.94	3608
2775.46	3618.5
2773.99	3658.5
2772.51	3647
2771.03	3612
2769.55	3663
2768.07	3686.5
2766.6	3644
2765.12	3681.5
2763.64	3632.5
2762.16	3687.5
2760.68	3641
2759.2	3680.5
2757.72	3664.5
2756.24	3659
2754.75	3582
2753.27	3659
2751.79	3636
2750.31	3644
2748.82	3643.5
2747.34	3665
2745.86	3654.5
2744.37	3676
2742.89	3629.5
2741.4	3615
2739.92	3580.5
2738.43	3549
2736.94	3628.5
2735.46	3609
2733.97	3633
2732.48	3650
2731	3615.5
2729.51	3664.5
2728.02	3626.5
2726.53	3626
2725.04	3599
2723.55	3588
2722.06	3571.5
2720.57	3630.5
2719.08	3642
2717.59	3641.5
2716.1	3642.5
2714.61	3657.5
2713.11	3611
2711.62	3588
2710.13	3614
2708.64	3615.5
2707.14	3575.5
2705.65	3565.5
2704.15	3593.5
2702.66	3550.5
2701.16	3566.5
2699.67	3551.5
2698.17	3553
2696.67	3547.5
2695.18	3536.5
2693.68	3533
2692.18	3497.5
2690.69	3572
2689.19	3501
2687.69	3531.5
2686.19	3454.5
2684.69	3483.5
2683.19	3497
2681.69	3489
2680.19	3507.5
2678.69	3454
2677.19	3469.5
2675.68	3440.5
2674.18	3456
2672.68	3475.5
2671.18	3422
2669.67	3468.5
2668.17	3475
2666.66	3428.5
2665.16	3419
2663.66	3422
2662.15	3428.5
2660.64	3397.5
2659.14	3421
2657.63	3402.5
2656.13	3387.5
2654.62	3427
2653.11	3386
2651.6	3426.5
2650.09	3387.5
2648.58	3346.5
2647.08	3356.5
2645.57	3335.5
2644.06	3325
2642.55	3365
2641.04	3368
2639.52	3342.5
2638.01	3354.5
2636.5	3310.5
2634.99	3284
2633.48	3310.5
2631.96	3278
2630.45	3290.5
2628.94	3281
2627.42	3283
2625.91	3261.5
2624.39	3296
2622.88	3251
2621.36	3291.5
2619.85	3255.5
2618.33	3245
2616.81	3226
2615.3	3249
2613.78	3202.5
2612.26	3239.5
2610.74	3235.5
2609.22	3206.5
2607.7	3267.5
2606.18	3220.5
2604.66	3217.5
2603.14	3205
2601.62	3175.5
2600.1	3134.5
2598.58	3116.5
2597.06	3152
2595.54	3111.5
2594.01	3116
2592.49	3158.5
2590.97	3152
2589.44	3135
2587.92	3112
2586.39	3063.5
2584.87	3041
2583.34	3045.5
2581.82	3095.5
2580.29	3073
2578.76	3042
2577.24	3114
2575.71	3084
2574.18	3060.5
2572.65	3061
2571.13	3046.5
2569.6	3090.5
2568.07	3070.5
2566.54	3062
2565.01	3035
2563.48	3051
2561.95	3042
2560.42	3069
2558.88	3065.5
2557.35	3044.5
2555.82	3014.5
2554.29	3012.5
2552.75	3015.5
2551.22	2966
2549.69	2950.5
2548.15	2978.5
2546.62	2980.5
2545.08	2959
2543.55	2961.5
2542.01	2938
2540.47	2949
2538.94	2971
2537.4	2957.5
2535.86	2920.5
2534.33	2904.5
2532.79	2871
2531.25	2887.5
2529.71	2871
2528.17	2870
2526.63	2867.5
2525.09	2825
2523.55	2854
2522.01	2811
2520.47	2819.5
2518.92	2814.5
2517.38	2821.5
2515.84	2826
2514.3	2745.5
2512.75	2784.5
2511.21	2776.5
2509.67	2751.5
2508.12	2772
2506.58	2755
2505.03	2738.5
2503.49	2728.5
2501.94	2723.5
2500.39	2762
2498.85	2736
2497.3	2704.5
2495.75	2677.5
2494.2	2693.5
2492.65	2624
2491.11	2702
2489.56	2698
2488.01	2633
2486.46	2656.5
2484.91	2636
2483.36	2630.5
2481.8	2640.5
2480.25	2605.5
2478.7	2571.5
2477.15	2550.5
2475.6	2539
2474.04	2533.5
2472.49	2555.5
2470.93	2600.5
2469.38	2580.5
2467.83	2557
2466.27	2542
2464.71	2524
2463.16	2486.5
2461.6	2489
2460.05	2512.5
2458.49	2472.5
2456.93	2445.5
2455.37	2427
2453.81	2482
2452.26	2450
2450.7	2433.5
2449.14	2462
2447.58	2432.5
2446.02	2357
2444.46	2394.5
2442.9	2373
2441.33	2380
2439.77	2335
2438.21	2384.5
2436.65	2368
2435.08	2349.5
2433.52	2346
2431.96	2391.5
2430.39	2341.5
2428.83	2352.5
2427.26	2316
2425.7	2304.5
2424.13	2299.5
2422.56	2329
2421	2312
2419.43	2300
2417.86	2280.5
2416.3	2271
2414.73	2254
2413.16	2308
2411.59	2266
2410.02	2253
2408.45	2259.5
2406.88	2242
2405.31	2254
2403.74	2250.5
2402.17	2224
2400.6	2252.5
2399.02	2233
2397.45	2235
2395.88	2234
2394.3	2221.5
2392.73	2198
2391.16	2228
2389.58	2189.5
2388.01	2192.5
2386.43	2176
2384.86	2190.5
2383.28	2206
2381.7	2162.5
2380.13	2228
2378.55	2179
2376.97	2165
2375.39	2172
2373.81	2158
2372.23	2177
2370.65	2139.5
2369.07	2135.5
2367.49	2157.5
2365.91	2126.5
2364.33	2136
2362.75	2157
2361.17	2148
2359.59	2115.5
2358.01	2145
2356.42	2102.5
2354.84	2056
2353.25	2068
2351.67	2067.5
2350.09	2093
2348.5	2092
2346.92	2088
2345.33	2105
2343.74	2076
2342.16	2067
2340.57	2055
2338.98	2064
2337.39	2064
2335.81	2077.5
2334.22	2030
2332.63	2048
2331.04	2024.5
2329.45	2030.5
2327.86	2039.5
2326.27	2032.5
2324.68	2045.5
2323.09	2000.5
2321.49	1992
2319.9	1987.5
2318.31	1985.5
2316.72	1987
2315.12	1943
2313.53	1934
2311.93	1946.5
2310.34	1922
2308.74	1938.5
2307.15	1949
2305.55	1941.5
2303.96	1929.5
2302.36	1922
2300.76	1885
2299.17	1901.5
2297.57	1886.5
2295.97	1864
2294.37	1841.5
2292.77	1846
2291.17	1861.5
2289.57	1859
2287.97	1848
2286.37	1872.5
2284.77	1857.5
2283.17	1862
2281.57	1819
2279.96	1842
2278.36	1830.5
2276.76	1797.5
2275.15	1805
2273.55	1822
2271.95	1803.5
2270.34	1825.5
2268.74	1813
2267.13	1806.5
2265.52	1772
2263.92	1773
2262.31	1730
2260.7	1712.5
2259.1	1724.5
2257.49	1735
2255.88	1733
2254.27	1731
2252.66	1762.5
2251.05	1750.5
2249.44	1758
2247.83	1733
2246.22	1704.5
2244.61	1737.5
2243	1691.5
2241.39	1678
2239.77	1680.5
2238.16	1695.5
2236.55	1698
2234.93	1666
2233.32	1670
2231.7	1646
2230.09	1669
2228.47	1636.5
2226.86	1647
2225.24	1628
2223.63	1611
2222.01	1628
2220.39	1627.5
2218.77	1609.5
2217.16	1600
2215.54	1615.5
2213.92	1613.5
2212.3	1598.5
2210.68	1589.5
2209.06	1592.5
2207.44	1559
2205.82	1528
2204.19	1574
2202.57	1551.5
2200.95	1581
2199.33	1547.5
2197.7	1568
2196.08	1551.5
2194.46	1570
2192.83	1549
2191.21	1573.5
2189.58	1528.5
2187.96	1527
2186.33	1495.5
2184.7	1517
2183.08	1508.5
2181.45	1527.5
2179.82	1517.5
2178.19	1505.5
2176.57	1503.5
2174.94	1487
2173.31	1449
2171.68	1493.5
2170.05	1477.5
2168.42	1466.5
2166.79	1458
2165.16	1459
2163.52	1449
2161.89	1427.5
2160.26	1457
2158.63	1424
2156.99	1438
2155.36	1416.5
2153.73	1400.5
2152.09	1413
2150.46	1363
2148.82	1421
2147.18	1395.5
2145.55	1342.5
2143.91	1397.5
2142.27	1386.5
2140.64	1370
2139	1374
2137.36	1357
2135.72	1394.5
2134.08	1363.5
2132.44	1334
2130.8	1336
2129.16	1316.5
2127.52	1286.5
2125.88	1313
2124.24	1286.5
2122.6	1285.5
2120.95	1295
2119.31	1298.5
2117.67	1265.5
2116.02	1283
2114.38	1267
2112.74	1263.5
2111.09	1222.5
2109.45	1258.5
2107.8	1228
2106.15	1222.5
2104.51	1234.5
2102.86	1272.5
2101.21	1224
2099.56	1220
2097.92	1216.5
2096.27	1195.5
2094.62	1228
2092.97	1226
2091.32	1194.5
2089.67	1177.5
2088.02	1223
2086.37	1214
2084.72	1193
2083.06	1223.5
2081.41	1205
2079.76	1188.5
2078.1	1184
2076.45	1221.5
2074.8	1179.5
2073.14	1175.5
2071.49	1162.5
2069.83	1172
2068.18	1169
2066.52	1193.5
2064.86	1177
2063.21	1174
2061.55	1162
2059.89	1167.5
2058.23	1155
2056.57	1135
2054.92	1125.5
2053.26	1121.5
2051.6	1131
2049.94	1124
2048.27	1155
2046.61	1133
2044.95	1146.5
2043.29	1134.5
2041.63	1113
2039.97	1093
2038.3	1103.5
2036.64	1113.5
2034.97	1099.5
2033.31	1037.5
2031.64	1054
2029.98	1068.5
2028.31	1077
2026.65	1067.5
2024.98	1060
2023.31	1055
2021.65	1060
2019.98	1034
2018.31	1021.5
2016.64	1002
2014.97	1002.5
2013.3	1014.5
2011.63	1009.5
2009.96	1024
2008.29	1037
2006.62	1028
2004.95	1005.5
2003.28	1025
2001.6	996
1999.93	996
1998.26	999.5
1996.58	988
1994.91	988.5
1993.24	961
1991.56	1002
1989.89	1003.5
1988.21	954
1986.53	982.5
1984.86	958
1983.18	988
1981.5	967.5
1979.82	922.5
1978.15	927.5
1976.47	925
1974.79	924.5
1973.11	928.5
1971.43	941.5
1969.75	933.5
1968.07	944
1966.38	937
1964.7	911.5
1963.02	916.5
1961.34	920.5
1959.66	911.5
1957.97	888.5
1956.29	896.5
1954.6	896
1952.92	909
1951.23	904.5
1949.55	898
1947.86	913
1946.18	885.5
1944.49	878
1942.8	870.5
1941.11	877.5
1939.43	868
1937.74	866
1936.05	856.5
1934.36	854
1932.67	857.5
1930.98	866
1929.29	870.5
1927.6	862
1925.91	836
1924.21	838
1922.52	840
1920.83	817
1919.14	830
1917.44	792
1915.75	806
1914.05	802
1912.36	812
1910.66	839
1908.97	814
1907.27	793.5
1905.58	798.5
1903.88	792
1902.18	787
1900.48	751
1898.79	794.5
1897.09	772.5
1895.39	772
1893.69	777
1891.99	754.5
1890.29	783
1888.59	764.5
1886.89	763.5
1885.18	737.5
1883.48	754
1881.78	730.5
1880.08	721.5
1878.37	703.5
1876.67	737
1874.96	729
1873.26	711.5
1871.55	729
1869.85	744
1868.14	716.5
1866.44	724
1864.73	709
1863.02	686
1861.32	698
1859.61	689.5
1857.9	690
1856.19	679
1854.48	678
1852.77	697.5
1851.06	709.5
1849.35	711
1847.64	703
1845.93	684
1844.21	684
1842.5	657.5
1840.79	659.5
1839.08	667.5
1837.36	657
1835.65	664.5
1833.93	680
1832.22	686.5
1830.5	676.5
1828.79	687.5
1827.07	656
1825.36	636.5
1823.64	637
1821.92	619
1820.2	633.5
1818.48	625
1816.77	612
1815.05	643
1813.33	627
1811.61	645
1809.89	628
1808.16	611.5
1806.44	621.5
1804.72	610.5
1803	595
1801.28	591
1799.55	615.5
1797.83	593
1796.11	602
1794.38	611.5
1792.66	595.5
1790.93	610.5
1789.21	591.5
1787.48	602
1785.75	581.5
1784.03	599.5
1782.3	559
1780.57	572.5
1778.84	580
1777.11	590
1775.38	586
1773.66	584.5
1771.93	600.5
1770.19	600
1768.46	576
1766.73	599
1765	598
1763.27	583.5
1761.54	616
1759.8	616
1758.07	604
1756.34	652.5
1754.6	673
1752.87	686
1751.13	705.5
1749.4	681
1747.66	693.5
1745.92	679.5
1744.19	679
1742.45	674.5
1740.71	670
1738.97	633
1737.23	630.5
1735.49	632.5
1733.75	625.5
1732.01	602
1730.27	596
1728.53	573
1726.79	545
1725.05	558
1723.31	556
1721.57	521
1719.82	551.5
1718.08	529.5
1716.34	531.5
1714.59	536
1712.85	532
1711.1	554.5
1709.36	540.5
1707.61	519.5
1705.86	531.5
1704.12	515.5
1702.37	501.5
1700.62	517.5
1698.87	514.5
1697.12	526.5
1695.37	504
1693.62	542
1691.87	508.5
1690.12	527.5
1688.37	511
1686.62	502.5
1684.87	499
1683.12	499.5
1681.36	495.5
1679.61	521.5
1677.86	534.5
1676.1	521.5
1674.35	563.5
1672.59	581
1670.84	594.5
1669.08	642.5
1667.33	671.5
1665.57	709.5
1663.81	778
1662.06	827
1660.3	882
1658.54	911
1656.78	919
1655.02	920
1653.26	883
1651.5	814
1649.74	759
1647.98	693
1646.22	648
1644.46	607
1642.7	566.5
1640.93	518
1639.17	524.5
1637.41	514
1635.64	515.5
1633.88	511
1632.11	505
1630.35	467
1628.58	487.5
1626.81	473.5
1625.05	466
1623.28	429.5
1621.51	435.5
1619.75	439
1617.98	439
1616.21	446
1614.44	452
1612.67	439
1610.9	445.5
1609.13	448.5
1607.36	458.5
1605.58	432
1603.81	427.5
1602.04	411
1600.27	403.5
1598.49	414
1596.72	433.5
1594.95	431.5
1593.17	444
1591.4	420
1589.62	430
1587.84	410
1586.07	418
1584.29	415.5
1582.51	411.5
1580.74	411.5
1578.96	414
1577.18	423
1575.4	413
1573.62	417
1571.84	415.5
1570.06	424.5
1568.28	411
1566.5	419.5
1564.72	412
1562.93	402.5
1561.15	401
1559.37	413
1557.58	404
1555.8	406
1554.02	418
1552.23	426
1550.45	405
1548.66	412.5
1546.87	409.5
1545.09	409.5
1543.3	394
1541.51	383
1539.72	387.5
1537.94	393.5
1536.15	393
1534.36	403.5
1532.57	404.5
1530.78	383
1528.99	401.5
1527.2	415.5
1525.4	420
1523.61	401
1521.82	393.5
1520.03	389.5
1518.23	385
1516.44	379
1514.65	394.5
1512.85	400
1511.06	423
1509.26	419
1507.46	436.5
1505.67	434
1503.87	424
1502.07	422.5
1500.28	423.5
1498.48	416
1496.68	418
1494.88	442
1493.08	456
1491.28	461
1489.48	478
1487.68	505
1485.88	516.5
1484.08	506
1482.27	526
1480.47	554.5
1478.67	575.5
1476.86	590.5
1475.06	645
1473.25	697
1471.45	777.5
1469.64	806.5
1467.84	910.5
1466.03	973.5
1464.23	1023.5
1462.42	1093.5
1460.61	1196.5
1458.8	1192
1456.99	1200
1455.18	1274
1453.37	1300
1451.56	1364.5
1449.75	1446
1447.94	1485
1446.13	1524
1444.32	1569
1442.51	1652.5
1440.7	1647.5
1438.88	1567
1437.07	1468
1435.26	1377
1433.44	1194
1431.63	1038.5
1429.81	933.5
1427.99	859
1426.18	771.5
1424.36	733
1422.54	685
1420.73	651
1418.91	616
1417.09	559
1415.27	534
1413.45	493
1411.63	515
1409.81	477.5
1407.99	471.5
1406.17	472.5
1404.35	464
1402.53	453
1400.7	470.5
1398.88	407.5
1397.06	407
1395.23	395
1393.41	400.5
1391.58	393.5
1389.76	401.5
1387.93	397
1386.11	430
1384.28	406.5
1382.45	414.5
1380.62	417.5
1378.8	422
1376.97	435.5
1375.14	428
1373.31	416
1371.48	446
1369.65	460.5
1367.82	459
1365.99	440.5
1364.16	440.5
1362.32	454.5
1360.49	438.5
1358.66	457
1356.82	443.5
1354.99	417
1353.16	420.5
1351.32	451.5
1349.48	438.5
1347.65	461
1345.81	462
1343.98	441
1342.14	463
1340.3	468.5
1338.46	483.5
1336.62	467.5
1334.79	481
1332.95	503
1331.11	529.5
1329.27	542
1327.42	572
1325.58	624.5
1323.74	647.5
1321.9	694.5
1320.06	748
1318.21	743
1316.37	813
1314.53	864
1312.68	912
1310.84	969
1308.99	1040.5
1307.15	1131.5
1305.3	1185
1303.45	1204.5
1301.61	1249
1299.76	1242
1297.91	1190
1296.06	1111.5
1294.21	1014.5
1292.36	938.5
1290.51	846
1288.66	778
1286.81	765
1284.96	767.5
1283.11	753.5
1281.26	761.5
1279.4	757.5
1277.55	758
1275.7	780.5
1273.84	784
1271.99	785.5
1270.13	753.5
1268.28	788
1266.42	776
1264.56	756
1262.71	764
1260.85	744.5
1258.99	716
1257.13	689.5
1255.27	672.5
1253.41	636
1251.56	600
1249.7	579.5
1247.83	540
1245.97	509.5
1244.11	529.5
1242.25	518.5
1240.39	520
1238.52	485.5
1236.66	492
1234.8	471
1232.93	436
1231.07	435
1229.2	416.5
1227.34	397
1225.47	419.5
1223.6	416.5
1221.74	404.5
1219.87	405.5
1218	405
1216.13	403
1214.26	416.5
1212.39	402
1210.53	398
1208.65	369
1206.78	377
1204.91	375.5
1203.04	383
1201.17	392
1199.3	386
1197.42	399
1195.55	401
1193.68	384.5
1191.8	386.5
1189.93	369
1188.05	378.5
1186.17	372
1184.3	364
1182.42	380
1180.54	378.5
1178.67	377
1176.79	378.5
1174.91	403.5
1173.03	410
1171.15	395.5
1169.27	409.5
1167.39	388.5
1165.51	383
1163.63	369
1161.75	374
1159.86	382
1157.98	384
1156.1	391
1154.21	390.5
1152.33	395
1150.44	407
1148.56	398
1146.67	427
1144.79	380
1142.9	410.5
1141.01	414
1139.12	433.5
1137.24	447
1135.35	454
1133.46	517
1131.57	580.5
1129.68	609
1127.79	622.5
1125.9	620.5
1124.01	610.5
1122.12	597
1120.22	591
1118.33	571.5
1116.44	546.5
1114.54	545
1112.65	565.5
1110.75	591.5
1108.86	580
1106.96	598
1105.07	635.5
1103.17	640
1101.27	693
1099.38	697.5
1097.48	738.5
1095.58	743.5
1093.68	783.5
1091.78	794
1089.88	836
1087.98	872.5
1086.08	900
1084.18	919.5
1082.28	895
1080.38	887.5
1078.47	899.5
1076.57	883
1074.67	870.5
1072.76	859
1070.86	841
1068.95	878
1067.05	934
1065.14	967
1063.24	933
1061.33	883
1059.42	814.5
1057.51	761.5
1055.6	687
1053.7	655.5
1051.79	630
1049.88	597
1047.97	614.5
1046.06	619.5
1044.14	617.5
1042.23	609.5
1040.32	620
1038.41	612.5
1036.5	588
1034.58	579.5
1032.67	562
1030.75	556.5
1028.84	578
1026.92	589
1025.01	567
1023.09	580
1021.17	576.5
1019.26	578.5
1017.34	563
1015.42	576.5
1013.5	550
1011.58	547.5
1009.66	513.5
1007.74	519.5
1005.82	508
1003.9	498.5
1001.98	524
1000.06	516
998.134	519.5
996.212	518
994.288	505
992.364	488
990.44	513.5
988.515	506
986.589	542
984.663	544
982.737	590
980.81	596
978.883	632.5
976.955	629
975.027	672
973.098	680
971.169	664
969.239	654
967.308	632.5
965.378	650.5
963.447	646.5
961.516	649
959.583	632.5
957.65	648
955.718	632
953.784	649
951.85	660
949.916	663.5
947.981	660
946.045	666
944.109	671.5
942.173	679
940.236	665
938.298	694
936.36	674.5
934.422	711.5
932.484	672
930.544	675
928.604	655.5
926.664	638
924.724	648.5
922.782	635
920.84	639
918.898	640
916.955	663
915.012	657.5
913.068	682.5
911.124	658
909.18	659
907.235	676
905.289	691.5
903.343	671.5
901.397	672.5
899.45	665
897.502	700.5
895.554	725
893.605	763
891.657	795
889.707	819
887.758	810
885.807	798
883.856	791
881.905	808
879.953	787
878.001	808
876.048	828.5
874.094	821
872.14	843.5
870.186	836
868.232	835.5
866.276	815
864.321	824.5
862.365	794
860.408	802
858.451	775
856.493	782.5
854.535	756.5
852.576	762.5
850.617	762
848.658	808.5
846.698	775.5
844.737	777
842.776	758
840.814	744.5
838.852	739
836.89	720.5
834.927	714.5
832.963	646
830.999	645.5
829.035	602
827.07	598
825.105	579
823.139	584.5
821.172	562
819.206	550.5
817.238	547.5
815.27	526.5
813.301	505.5
811.333	491
809.363	467
807.394	454.5
805.424	455
803.453	446
801.482	447.5
799.509	439
797.538	423
795.565	416
793.592	396
791.618	381
789.643	377.5
787.669	393.5
785.693	367.5
783.718	382.5
781.742	374
779.765	384
777.788	405
775.811	404.5
773.832	393
771.853	398
769.875	396.5
767.895	390
765.915	384.5
763.934	376.5
761.953	370.5
759.972	373.5
757.99	358
756.007	388.5
754.024	380
752.041	382
750.056	403
748.072	381
746.087	382
744.102	369.5
742.116	372.5
740.13	375
738.143	393.5
736.155	386.5
734.167	399.5
732.179	405
730.19	422
728.2	421.5
726.21	416
724.22	408
722.229	393
720.237	384
718.246	389
716.253	371.5
714.26	370
712.267	354.5
710.273	384
708.279	357.5
706.284	368.5
704.289	336.5
702.293	350
700.296	347.5
698.3	336
696.303	323
694.305	330
692.307	308
690.307	318.5
688.308	341
686.309	330.5
684.308	330.5
682.308	342.5
680.306	349
678.304	344.5
676.302	329.5
674.3	345.5
672.296	330
670.293	308
668.289	322.5
666.284	330.5
664.278	348
662.273	357
660.266	357
658.26	346.5
656.252	351.5
654.244	356
652.237	343
650.227	329
648.218	344.5
646.209	319
644.198	364.5
642.188	338
640.177	354
638.165	383
636.153	365.5
634.14	382.5
632.128	378
630.113	370
628.099	384
626.085	375
624.07	368.5
622.054	381
620.038	383.5
618.021	409.5
616.004	426.5
613.986	418.5
611.968	424
609.949	432
607.93	428.5
605.911	435.5
603.891	413.5
601.87	415.5
599.848	416
597.827	413
595.805	401.5
593.782	415.5
591.759	409
589.735	428
587.711	417.5
585.687	396
583.661	384
581.636	396.5
579.609	371
577.583	374
575.555	376
573.527	368.5
571.5	379.5
569.471	393.5
567.441	379.5
565.412	380.5
563.382	386.5
561.351	383
559.32	379
557.289	387
555.257	400.5
553.223	392
551.19	421.5
549.157	423
547.122	454
545.088	476
543.053	489
541.017	505
538.981	533.5
536.943	567.5
534.907	643.5
532.869	769
530.831	976
528.792	1400
526.752	2042
524.713	2934.5
522.673	3762.5
520.632	3789
518.591	3132.5
516.549	2348
514.507	1628
512.464	1163
510.42	849
508.377	708
506.332	630.5
504.288	572
502.242	560.5
500.196	540.5
498.15	541.5
496.104	549.5
494.056	515
492.008	519
489.96	481
487.911	499
485.862	487.5
483.812	479.5
481.761	488.5
479.71	478
477.659	488.5
475.607	502.5
473.555	492.5
471.502	508
469.448	490
467.395	503
465.34	499
463.285	458.5
461.23	489.5
459.174	472.5
457.118	499.5
455.061	507.5
453.003	511
450.945	546
448.887	505
446.828	512
444.768	500
442.708	522
440.647	490.5
438.587	494
436.525	502.5
434.463	532.5
432.4	529
430.337	555.5
428.274	551.5
426.21	565.5
424.145	543
422.079	541.5
420.014	539
417.948	526
415.882	534
413.814	543.5
411.746	551.5
409.679	568.5
407.609	574
405.54	584
403.47	600.5
401.401	611.5
399.329	581
397.258	549
395.187	582
393.114	549.5
391.041	552
388.968	538.5
386.895	556.5
384.82	600
382.745	596
380.67	596.5
378.594	621
376.517	592.5
374.44	605
372.363	590.5
370.286	594.5
368.207	598
366.128	593
364.049	598
361.969	601
359.888	607
357.807	636
355.725	639
353.643	620.5
351.561	632.5
349.477	643
347.394	616
345.31	619.5
343.226	623
341.141	602.5
339.055	630
336.968	655
334.882	663.5
332.795	693
330.707	672
328.618	659.5
326.53	671
324.44	665
322.351	681.5
320.26	696.5
318.17	710
316.078	727
313.987	745
311.895	751
309.802	811
307.708	834.5
305.614	838
303.52	806
301.425	828.5
299.329	810
297.233	816.5
295.137	812
293.039	813
290.942	792.5
288.844	807
286.745	815
284.647	843.5
282.546	862
280.446	849.5
278.346	875.5
276.245	848.5
274.143	848
272.041	877.5
269.939	880
267.835	894
265.731	920
263.627	923.5
261.522	939.5
259.417	955.5
257.311	940
255.204	961.5
253.098	967.5
250.99	960
248.882	959
246.774	1000.5
244.664	1018.5
242.555	1049.5
240.445	1057.5
238.334	1059.5
236.223	1082
234.112	1081.5
232	1109
229.888	1098
227.775	1124.5
225.661	1131.5
223.546	1124
221.431	1130.5
219.316	1126
217.201	1181
215.084	1188.5
212.967	1172
210.85	1213.5
208.732	1213.5
206.614	1209
204.495	1180
202.375	1178
200.256	1169
198.135	1165.5
196.014	1164
193.893	1152
191.771	1200.5
189.648	1208
187.525	1167.5
185.401	1192.5
183.277	1162
181.152	1173.5
179.027	1151.5
176.901	1163.5
174.775	1179
172.648	1180.5
170.521	1216
168.393	1239
166.265	1257
164.136	1270
162.007	1283
159.876	1315
157.746	1357
155.615	1367
153.483	1368.5
151.351	1395
149.219	1421.5
147.086	1456.5
144.952	1497.5
142.818	1531
140.684	1618.5
138.548	1664
136.413	1687.5
134.276	1760
132.139	1796
130.002	1850
127.864	1908
125.725	1967
123.587	2057
121.447	2159
119.307	2199
117.166	2301.5
115.026	2387.5
112.885	2462.5
110.743	2571
108.6	2641
106.456	2692
104.313	2685.5
102.169	2680.5
100.023	2628.5
97.8789	2447.5
95.7328	2295
93.5869	1958.5
91.4392	1702
89.2919	1422.5
87.1447	1112
84.9959	887
