3528.51	357.5
3527.23	353
3525.95	408
3524.67	394
3523.39	426.5
3522.1	417
3520.82	408
3519.54	409
3518.26	409.5
3516.97	411.5
3515.69	414
3514.4	415.5
3513.12	408
3511.84	412
3510.55	437.5
3509.26	433.5
3507.98	432.5
3506.69	438
3505.41	441
3504.12	428.5
3502.83	453.5
3501.54	463
3500.26	464
3498.97	460.5
3497.68	483.5
3496.39	475.5
3495.1	488.5
3493.81	497
3492.52	500
3491.23	516.5
3489.94	514
3488.65	529
3487.36	523.5
3486.07	520.5
3484.78	531.5
3483.49	550
3482.19	544
3480.9	556
3479.61	570
3478.31	583.5
3477.02	588
3475.73	601.5
3474.43	587
3473.14	605
3471.84	601.5
3470.54	614.5
3469.25	613
3467.95	614.5
3466.66	621
3465.36	635
3464.06	634.5
3462.76	619
3461.46	628.5
3460.17	632
3458.87	658
3457.57	644
3456.27	658
3454.97	660
3453.67	677.5
3452.37	657.5
3451.07	670.5
3449.77	670
3448.47	686
3447.16	703.5
3445.86	705
3444.56	723
3443.26	729
3441.95	750.5
3440.65	752
3439.35	769.5
3438.04	779
3436.74	792
3435.43	801.5
3434.13	827
3432.82	830.5
3431.52	857.5
3430.21	869
3428.9	871
3427.6	888
3426.29	895.5
3424.98	927
3423.67	939
3422.36	947
3421.06	968.5
3419.75	971
3418.44	981
3417.13	997.5
3415.82	1005
3414.51	1019
3413.2	1017
3411.88	1024.5
3410.57	1073
3409.26	1029
3407.95	1049
3406.64	1071
3405.32	1099.5
3404.01	1085.5
3402.7	1071
3401.38	1085.5
3400.07	1107
3398.75	1110.5
3397.44	1123
3396.12	1152.5
3394.81	1144.5
3393.49	1141
3392.18	1166
3390.86	1202
3389.54	1203
3388.23	1227.5
3386.91	1220
3385.59	1225.5
3384.27	1238
3382.95	1246.5
3381.63	1243.5
3380.31	1238
3378.99	1268.5
3377.67	1296.5
3376.35	1320.5
3375.03	1300
3373.71	1315.5
3372.39	1325.5
3371.07	1328
3369.75	1353.5
3368.42	1348
3367.1	1390
3365.78	1363
3364.45	1411
3363.13	1401.5
3361.81	1402.5
3360.48	1424
3359.16	1431
3357.83	1426
3356.51	1441
3355.18	1449
3353.85	1450
3352.53	1492
3351.2	1471.5
3349.87	1462.5
3348.54	1490.5
3347.22	1503
3345.89	1490.5
3344.56	1535
3343.23	1503
3341.9	1491
3340.57	1537
3339.24	1468
3337.91	1536.5
3336.58	1540.5
3335.25	1534.5
3333.92	1541.5
3332.58	1549.5
3331.25	1577.5
3329.92	1575.5
3328.59	1566.5
3327.25	1572.5
3325.92	1588
3324.58	1604.5
3323.25	1620
3321.92	1662.5
3320.58	1599.5
3319.25	1631.5
3317.91	1663.5
3316.57	1657
3315.24	1640
3313.9	1660
3312.56	1688.5
3311.23	1684
3309.89	1659
3308.55	1696.5
3307.21	1737
3305.87	1698.5
3304.53	1701.5
3303.19	1707
3301.85	1733
3300.51	1739.5
3299.17	1744
3297.83	1744
3296.49	1743.5
3295.15	1782.5
3293.81	1791.5
3292.46	1751.5
3291.12	1802.5
3289.78	1799
3288.43	1783
3287.09	1821
3285.75	1801.5
3284.4	1810
3283.06	1848
3281.71	1809
3280.37	1830.5
3279.02	1861.5
3277.67	1878
3276.33	1843.5
3274.98	1880.5
3273.63	1890
3272.28	1902.5
3270.94	1900.5
3269.59	1961.5
3268.24	1955
3266.89	1984.5
3265.54	1996
3264.19	2029
3262.84	2069
3261.49	2063
3260.14	2090
3258.79	2110.5
3257.44	2155.5
3256.08	2206.5
3254.73	2232
3253.38	2286
3252.03	2328
3250.67	2372
3249.32	2470.5
3247.96	2508.5
3246.61	2562.5
3245.26	2634.5
3243.9	2707.5
3242.54	2760.5
3241.19	2807
3239.83	2906.5
3238.48	3007.5
3237.12	3074
3235.76	3160.5
3234.41	3199.5
3233.05	3258
3231.69	3372.5
3230.33	3461
3228.97	3504
3227.61	3570.5
3226.25	3692.5
3224.89	3677
3223.53	3768
3222.17	3788.5
3220.81	3877.5
3219.45	3908.5
3218.09	3974.5
3216.72	3988.5
3215.36	4065.5
3214	4082.5
3212.63	4122
3211.27	4155
3209.91	4181.5
3208.54	4287.5
3207.18	4202.5
3205.81	4287.5
3204.45	4289
3203.08	4325
3201.71	4337.5
3200.35	4370.5
3198.98	4390
3197.61	4438.5
3196.25	4384.5
3194.88	4438
3193.51	4439.5
3192.14	4468
3190.77	4504
3189.4	4522.5
3188.03	4502
3186.66	4546.5
3185.29	4586
3183.92	4571
3182.55	4624.5
3181.18	4644
3179.81	4642.5
3178.44	4747
3177.06	4731
3175.69	4776.5
3174.32	4821
3172.94	4855.5
3171.57	4885.5
3170.2	4937.5
3168.82	4913.5
3167.45	5004
3166.07	5022.5
3164.69	5042.5
3163.32	5083.5
3161.94	5133.5
3160.56	5173
3159.19	5159
3157.81	5279.5
3156.43	5313.5
3155.05	5330
3153.67	5392
3152.3	5434.5
3150.92	5462.5
3149.54	5510
3148.16	5520
3146.78	5537.5
3145.4	5557
3144.01	5643.5
3142.63	5654.5
3141.25	5660.5
3139.87	5752
3138.49	5760
3137.1	5751.5
3135.72	5822
3134.34	5897.5
3132.95	5911.5
3131.57	6032.5
3130.18	5931
3128.8	6027
3127.41	6102.5
3126.03	6123
3124.64	6118.5
3123.25	6145
3121.87	6243.5
3120.48	6278.5
3119.09	6311
3117.7	6392
3116.32	6389
3114.93	6418
3113.54	6432
3112.15	6436
3110.76	6515.5
3109.37	6434
3107.98	6578.5
3106.59	6578
3105.2	6635
3103.8	6612.5
3102.41	6647.5
3101.02	6689
3099.63	6725.5
3098.23	6774
3096.84	6734
3095.45	6803.5
3094.05	6752.5
3092.66	6835.5
3091.26	6881
3089.87	6917
3088.47	6897.5
3087.08	6877.5
3085.68	6869
3084.28	6971.5
3082.89	6968.5
3081.49	7021
3080.09	7003.5
3078.69	6989.5
3077.3	7077
3075.9	7068
3074.5	7123
3073.1	7085.5
3071.7	7075.5
3070.3	7105
3068.9	7145
3067.5	7121.5
3066.09	7126
3064.69	7149
3063.29	7209.5
3061.89	7238.5
3060.48	7192.5
3059.08	7208
3057.68	7206
3056.27	7262
3054.87	7308
3053.46	7320.5
3052.06	7337
3050.65	7302.5
3049.25	7368
3047.84	7282.5
3046.44	7420
3045.03	7439
3043.62	7467
3042.21	7494.5
3040.81	7571.5
3039.4	7564.5
3037.99	7563
3036.58	7603.5
3035.17	7631.5
3033.76	7592
3032.35	7649.5
3030.94	7681
3029.53	7636
3028.12	7657
3026.71	7617
3025.29	7752.5
3023.88	7724.5
3022.47	7761.5
3021.06	7700.5
3019.64	7698
3018.23	7696
3016.82	7741.5
3015.4	7717.5
3013.99	7738.5
3012.57	7752.5
3011.15	7819
3009.74	7803.5
3008.32	7745.5
3006.91	7853
3005.49	7863.5
3004.07	7803
3002.65	7891.5
3001.24	7880
2999.82	7949
2998.4	7962
2996.98	8041
2995.56	8004
2994.14	8136.5
2992.72	8116.5
2991.3	8082
2989.88	8198
2988.46	8219.5
2987.03	8267.5
2985.61	8295
2984.19	8315
2982.77	8478
2981.34	8501.5
2979.92	8574
2978.49	8573.5
2977.07	8612
2975.65	8580.5
2974.22	8711
2972.79	8630
2971.37	8732
2969.94	8685
2968.52	8793
2967.09	8849.5
2965.66	8788.5
2964.23	8862
2962.81	8875
2961.38	8875
2959.95	8864.5
2958.52	8907.5
2957.09	8951
2955.66	8906.5
2954.23	8946
2952.8	8927.5
2951.37	8979
2949.94	8960
2948.5	8974
2947.07	9003
2945.64	9011
2944.21	8915.5
2942.77	8987
2941.34	9091.5
2939.91	9095
2938.47	9124
2937.04	9087.5
2935.6	9191.5
2934.17	9212.5
2932.73	9197
2931.29	9262
2929.86	9321
2928.42	9287.5
2926.98	9271.5
2925.55	9340
2924.11	9277
2922.67	9394
2921.23	9360.5
2919.79	9361.5
2918.35	9403.5
2916.91	9442.5
2915.47	9311.5
2914.03	9385.5
2912.59	9359.5
2911.15	9456
2909.71	9445.5
2908.26	9454
2906.82	9518.5
2905.38	9487.5
2903.94	9537
2902.49	9523
2901.05	9498
2899.6	9610
2898.16	9542.5
2896.71	9601.5
2895.27	9565
2893.82	9625.5
2892.38	9529.5
2890.93	9593
2889.48	9609
2888.03	9642
2886.59	9623.5
2885.14	9660
2883.69	9672
2882.24	9657.5
2880.79	9680.5
2879.34	9752
2877.89	9782
2876.44	9743
2874.99	9757
2873.54	9793.5
2872.09	9733.5
2870.64	9774
2869.18	9845.5
2867.73	9730
2866.28	9786.5
2864.83	9790.5
2863.37	9831
2861.92	9780.5
2860.46	9799.5
2859.01	9803
2857.55	9775
2856.1	9815
2854.64	9824.5
2853.19	9844
2851.73	9769.5
2850.27	9802
2848.81	9826.5
2847.36	9867.5
2845.9	9848
2844.44	9871.5
2842.98	9816
2841.52	9796
2840.06	9822.5
2838.6	9846
2837.14	9796.5
2835.68	9861
2834.22	9839.5
2832.76	9879.5
2831.3	9754.5
2829.83	9770.5
2828.37	9831
2826.91	9823.5
2825.44	9823.5
2823.98	9874
2822.52	9801
2821.05	9806.5
2819.59	9759.5
2818.12	9845
2816.66	9785.5
2815.19	9755.5
2813.72	9753
2812.26	9679
2810.79	9743.5
2809.32	9712.5
2807.85	9748
2806.38	9768
2804.92	9760
2803.45	9723.5
2801.98	9685.5
2800.51	9716.5
2799.04	9759.5
2797.57	9713.5
2796.1	9697.5
2794.62	9602
2793.15	9562.5
2791.68	9626
2790.21	9569.5
2788.73	9602.5
2787.26	9524.5
2785.79	9609
2784.31	9611
2782.84	9648.5
2781.36	9683
2779.89	9690
2778.41	9663
2776.94	9708.5
2775.46	9747
2773.99	9747.5
2772.51	9760
2771.03	9772
2769.55	9796.5
2768.07	9808
2766.6	9783.5
2765.12	9845.5
2763.64	9811
2762.16	9858
2760.68	9844.5
2759.2	9850.5
2757.72	9806
2756.24	9767
2754.75	9793.5
2753.27	9800.5
2751.79	9792
2750.31	9765
2748.82	9811
2747.34	9782
2745.86	9774.5
2744.37	9761
2742.89	9816
2741.4	9824.5
2739.92	9750.5
2738.43	9766.5
2736.94	9700
2735.46	9720.5
2733.97	9789
2732.48	9751
2731	9735.5
2729.51	9713
2728.02	9716
2726.53	9725.5
2725.04	9653
2723.55	9719
2722.06	9639
2720.57	9632.5
2719.08	9594.5
2717.59	9586.5
2716.1	9680.5
2714.61	9664.5
2713.11	9666.5
2711.62	9636.5
2710.13	9686
2708.64	9599.5
2707.14	9593.5
2705.65	9548.5
2704.15	9605.5
2702.66	9667
2701.16	9591
2699.67	9570
2698.17	9571
2696.67	9512.5
2695.18	9590.5
2693.68	9561
2692.18	9546
2690.69	9507
2689.19	9530
2687.69	9481
2686.19	9390
2684.69	9424
2683.19	9406.5
2681.69	9353.5
2680.19	9323
2678.69	9268.5
2677.19	9402
2675.68	9345
2674.18	9285
2672.68	9303
2671.18	9296.5
2669.67	9274
2668.17	9326
2666.66	9259
2665.16	9315
2663.66	9300
2662.15	9267.5
2660.64	9232
2659.14	9304.5
2657.63	9173.5
2656.13	9218.5
2654.62	9179.5
2653.11	9139
2651.6	9118.5
2650.09	9071.5
2648.58	9112
2647.08	9069.5
2645.57	9087.5
2644.06	9179
2642.55	9052
2641.04	8971
2639.52	8934
2638.01	8986
2636.5	8941
2634.99	8871.5
2633.48	8840.5
2631.96	8831
2630.45	8745
2628.94	8820.5
2627.42	8878.5
2625.91	8838.5
2624.39	8827.5
2622.88	8915.5
2621.36	8746
2619.85	8703.5
2618.33	8744
2616.81	8678
2615.3	8755
2613.78	8742
2612.26	8699
2610.74	8648
2609.22	8661.5
2607.7	8714
2606.18	8619
2604.66	8678
2603.14	8610
2601.62	8545
2600.1	8478
2598.58	8434
2597.06	8421.5
2595.54	8356.5
2594.01	8413.5
2592.49	8384
2590.97	8327.5
2589.44	8402
2587.92	8320.5
2586.39	8404.5
2584.87	8400.5
2583.34	8406.5
2581.82	8378
2580.29	8357
2578.76	8275
2577.24	8368
2575.71	8262
2574.18	8226
2572.65	8324
2571.13	8303.5
2569.6	8266.5
2568.07	8290.5
2566.54	8282
2565.01	8296
2563.48	8261.5
2561.95	8245.5
2560.42	8238.5
2558.88	8244.5
2557.35	8233
2555.82	8134
2554.29	8127
2552.75	8147
2551.22	8074.5
2549.69	8076
2548.15	8003.5
2546.62	8058
2545.08	7994.5
2543.55	7996
2542.01	7966
2540.47	7981.5
2538.94	7912.5
2537.4	7877
2535.86	7807.5
2534.33	7828
2532.79	7836
2531.25	7794.5
2529.71	7789.5
2528.17	7759.5
2526.63	7635
2525.09	7659
2523.55	7587.5
2522.01	7676
2520.47	7673.5
2518.92	7625
2517.38	7655.5
2515.84	7623.5
2514.3	7603.5
2512.75	7496.5
2511.21	7552.5
2509.67	7464
2508.12	7482
2506.58	7506
2505.03	7436
2503.49	7448.5
2501.94	7381
2500.39	7449.5
2498.85	7361.5
2497.3	7342
2495.75	7315
2494.2	7305
2492.65	7271
2491.11	7223.5
2489.56	7257
2488.01	7258.5
2486.46	7226
2484.91	7136
2483.36	7224.5
2481.8	7174
2480.25	7160.5
2478.7	7127
2477.15	7049.5
2475.6	7127
2474.04	7062
2472.49	7105.5
2470.93	7005.5
2469.38	6898
2467.83	6964.5
2466.27	6921.5
2464.71	6867.5
2463.16	6802.5
2461.6	6813
2460.05	6800
2458.49	6767.5
2456.93	6678.5
2455.37	6637.5
2453.81	6691.5
2452.26	6599
2450.7	6590
2449.14	6552.5
2447.58	6518
2446.02	6476
2444.46	6423
2442.9	6396
2441.33	6309.5
2439.77	6385
2438.21	6448
2436.65	6375
2435.08	6371.5
2433.52	6384
2431.96	6346.5
2430.39	6304.5
2428.83	6339
2427.26	6338.5
2425.7	6318.5
2424.13	6284
2422.56	6302.5
2421	6243.5
2419.43	6249.5
2417.86	6175.5
2416.3	6183.5
2414.73	6155
2413.16	6162
2411.59	6168
2410.02	6087
2408.45	6118
2406.88	6120.5
2405.31	6138
2403.74	6133
2402.17	6023.5
2400.6	6058.5
2399.02	6074
2397.45	6033
2395.88	5991
2394.3	6009
2392.73	6001
2391.16	5991.5
2389.58	5918.5
2388.01	5937.5
2386.43	5871
2384.86	5941
2383.28	5873.5
2381.7	5895.5
2380.13	5922
2378.55	5967.5
2376.97	5896.5
2375.39	5909.5
2373.81	5914
2372.23	5858.5
2370.65	5864
2369.07	5871.5
2367.49	5816
2365.91	5819.5
2364.33	5791
2362.75	5839
2361.17	5751.5
2359.59	5744
2358.01	5774.5
2356.42	5741
2354.84	5743
2353.25	5671
2351.67	5685
2350.09	5742
2348.5	5714
2346.92	5722
2345.33	5721
2343.74	5681.5
2342.16	5679
2340.57	5680.5
2338.98	5638
2337.39	5620.5
2335.81	5641.5
2334.22	5588
2332.63	5593.5
2331.04	5577.5
2329.45	5587
2327.86	5535.5
2326.27	5601
2324.68	5506
2323.09	5460.5
2321.49	5485
2319.9	5471
2318.31	5418
2316.72	5399
2315.12	5364.5
2313.53	5388
2311.93	5328
2310.34	5357
2308.74	5345
2307.15	5324.5
2305.55	5296
2303.96	5321
2302.36	5214.5
2300.76	5196
2299.17	5165.5
2297.57	5187
2295.97	5163
2294.37	5165.5
2292.77	5157
2291.17	5142.5
2289.57	5107.5
2287.97	5077.5
2286.37	5044
2284.77	5021
2283.17	5044.5
2281.57	5086.5
2279.96	5055.5
2278.36	5031
2276.76	5026.5
2275.15	5019
2273.55	5041
2271.95	4991.5
2270.34	4950
2268.74	4936
2267.13	4898.5
2265.52	4894
2263.92	4858.5
2262.31	4806.5
2260.7	4807.5
2259.1	4839
2257.49	4733.5
2255.88	4827
2254.27	4812.5
2252.66	4812.5
2251.05	4805.5
2249.44	4762.5
2247.83	4823.5
2246.22	4764.5
2244.61	4764
2243	4795
2241.39	4731.5
2239.77	4737
2238.16	4672
2236.55	4699
2234.93	4654.5
2233.32	4683.5
2231.7	4635.5
2230.09	4545
2228.47	4493.5
2226.86	4522
2225.24	4553.5
2223.63	4553.5
2222.01	4480
2220.39	4526.5
2218.77	4487
2217.16	4449
2215.54	4474
2213.92	4419
2212.3	4399
2210.68	4412
2209.06	4322
2207.44	4365
2205.82	4283.5
2204.19	4321.5
2202.57	4321
2200.95	4277
2199.33	4282
2197.7	4250.5
2196.08	4226.5
2194.46	4210
2192.83	4260.5
2191.21	4259
2189.58	4193.5
2187.96	4231
2186.33	4170
2184.7	4210
2183.08	4177
2181.45	4131
2179.82	4108
2178.19	4123.5
2176.57	4046.5
2174.94	4068
2173.31	4017
2171.68	3986.5
2170.05	4024
2168.42	4032.5
2166.79	4015
2165.16	3951.5
2163.52	3943
2161.89	3959
2160.26	3923.5
2158.63	3925.5
2156.99	3870
2155.36	3886
2153.73	3815.5
2152.09	3854
2150.46	3850
2148.82	3841
2147.18	3806.5
2145.55	3821.5
2143.91	3808.5
2142.27	3816.5
2140.64	3793
2139	3727.5
2137.36	3760.5
2135.72	3728.5
2134.08	3698.5
2132.44	3685
2130.8	3630.5
2129.16	3617.5
2127.52	3599
2125.88	3599
2124.24	3559
2122.6	3508
2120.95	3511.5
2119.31	3540.5
2117.67	3500
2116.02	3481
2114.38	3470
2112.74	3457.5
2111.09	3435.5
2109.45	3443.5
2107.8	3395
2106.15	3399
2104.51	3402
2102.86	3341.5
2101.21	3380.5
2099.56	3347
2097.92	3356.5
2096.27	3377.5
2094.62	3320.5
2092.97	3349
2091.32	3340
2089.67	3301.5
2088.02	3355.5
2086.37	3309
2084.72	3286
2083.06	3254.5
2081.41	3299.5
2079.76	3272.5
2078.1	3252.5
2076.45	3232.5
2074.8	3281
2073.14	3235
2071.49	3227.5
2069.83	3231.5
2068.18	3247
2066.52	3195
2064.86	3243.5
2063.21	3200.5
2061.55	3231.5
2059.89	3208.5
2058.23	3169.5
2056.57	3171.5
2054.92	3173
2053.26	3188
2051.6	3180
2049.94	3176.5
2048.27	3142.5
2046.61	3149
2044.95	3100.5
2043.29	3113.5
2041.63	3059
2039.97	3031.5
2038.3	3030
2036.64	3026
2034.97	2979
2033.31	2955.5
2031.64	2976
2029.98	2949
2028.31	2941.5
2026.65	2919
2024.98	2883
2023.31	2863.5
2021.65	2863
2019.98	2874
2018.31	2851
2016.64	2823.5
2014.97	2830.5
2013.3	2795.5
2011.63	2795.5
2009.96	2768.5
2008.29	2754.5
2006.62	2755.5
2004.95	2757
2003.28	2710
2001.6	2759.5
1999.93	2753.5
1998.26	2734
1996.58	2736.5
1994.91	2702
1993.24	2704
1991.56	2693.5
1989.89	2656
1988.21	2678
1986.53	2666
1984.86	2646.5
1983.18	2617.5
1981.5	2625
1979.82	2611.5
1978.15	2622
1976.47	2584
1974.79	2582.5
1973.11	2610
1971.43	2551.5
1969.75	2546.5
1968.07	2549.5
1966.38	2490.5
1964.7	2474
1963.02	2478
1961.34	2475.5
1959.66	2483.5
1957.97	2461.5
1956.29	2457
1954.6	2434
1952.92	2439
1951.23	2415
1949.55	2402
1947.86	2427
1946.18	2411.5
1944.49	2344
1942.8	2341.5
1941.11	2366.5
1939.43	2373.5
1937.74	2308.5
1936.05	2346.5
1934.36	2341
1932.67	2355.5
1930.98	2291.5
1929.29	2315
1927.6	2304.5
1925.91	2265
1924.21	2277
1922.52	2251
1920.83	2265
1919.14	2231.5
1917.44	2241
1915.75	2187.5
1914.05	2201
1912.36	2204
1910.66	2185
1908.97	2197
1907.27	2167.5
1905.58	2163.5
1903.88	2156
1902.18	2129.5
1900.48	2124.5
1898.79	2083
1897.09	2107
1895.39	2088
1893.69	2091.5
1891.99	2066.5
1890.29	2045.5
1888.59	2027.5
1886.89	2024.5
1885.18	2013.5
1883.48	2011
1881.78	2023
1880.08	1983
1878.37	1953.5
1876.67	1958
1874.96	1959.5
1873.26	1962.5
1871.55	1938.5
1869.85	1920.5
1868.14	1940
1866.44	1939.5
1864.73	1910
1863.02	1914
1861.32	1891.5
1859.61	1891.5
1857.9	1865
1856.19	1887
1854.48	1834.5
1852.77	1857
1851.06	1810.5
1849.35	1812
1847.64	1819.5
1845.93	1780
1844.21	1812
1842.5	1806.5
1840.79	1804.5
1839.08	1794
1837.36	1792.5
1835.65	1751.5
1833.93	1750.5
1832.22	1753
1830.5	1749.5
1828.79	1755
1827.07	1741
1825.36	1705
1823.64	1717.5
1821.92	1730.5
1820.2	1710
1818.48	1667.5
1816.77	1658
1815.05	1669
1813.33	1660.5
1811.61	1637
1809.89	1645.5
1808.16	1667
1806.44	1626
1804.72	1587
1803	1628
1801.28	1582
1799.55	1605.5
1797.83	1573.5
1796.11	1579.5
1794.38	1575
1792.66	1573
1790.93	1566
1789.21	1537
1787.48	1545.5
1785.75	1535.5
1784.03	1540.5
1782.3	1545.5
1780.57	1527
1778.84	1517.5
1777.11	1516.5
1775.38	1492.5
1773.66	1480.5
1771.93	1493
1770.19	1508.5
1768.46	1477
1766.73	1487.5
1765	1471.5
1763.27	1476
1761.54	1455
1759.8	1480.5
1758.07	1453
1756.34	1452.5
1754.6	1456.5
1752.87	1442
1751.13	1457
1749.4	1441.5
1747.66	1454
1745.92	1419.5
1744.19	1442.5
1742.45	1417.5
1740.71	1423
1738.97	1401
1737.23	1399
1735.49	1408.5
1733.75	1401
1732.01	1416.5
1730.27	1392.5
1728.53	1372.5
1726.79	1369
1725.05	1393
1723.31	1365
1721.57	1357
1719.82	1333
1718.08	1320.5
1716.34	1319.5
1714.59	1306.5
1712.85	1324.5
1711.1	1300
1709.36	1281
1707.61	1322
1705.86	1274.5
1704.12	1298
1702.37	1273.5
1700.62	1256.5
1698.87	1263
1697.12	1246
1695.37	1234
1693.62	1235.5
1691.87	1213.5
1690.12	1213
1688.37	1198.5
1686.62	1203
1684.87	1191
1683.12	1214.5
1681.36	1204
1679.61	1196.5
1677.86	1185
1676.1	1172.5
1674.35	1173
1672.59	1157
1670.84	1160.5
1669.08	1185.5
1667.33	1149.5
1665.57	1174
1663.81	1157
1662.06	1179.5
1660.3	1167.5
1658.54	1160
1656.78	1169
1655.02	1144.5
1653.26	1157
1651.5	1146.5
1649.74	1111
1647.98	1150.5
1646.22	1109.5
1644.46	1100
1642.7	1134
1640.93	1120.5
1639.17	1093.5
1637.41	1101
1635.64	1080
1633.88	1057
1632.11	1071
1630.35	1059.5
1628.58	1066
1626.81	1058.5
1625.05	1034.5
1623.28	1014
1621.51	1015.5
1619.75	1005
1617.98	1010
1616.21	1016.5
1614.44	1026.5
1612.67	1008
1610.9	995.5
1609.13	994
1607.36	999.5
1605.58	995
1603.81	974
1602.04	1003.5
1600.27	974.5
1598.49	977.5
1596.72	975.5
1594.95	983.5
1593.17	985
1591.4	964
1589.62	942.5
1587.84	956.5
1586.07	972
1584.29	965
1582.51	974.5
1580.74	946
1578.96	924
1577.18	933
1575.4	908
1573.62	934
1571.84	919.5
1570.06	916
1568.28	910
1566.5	893.5
1564.72	893.5
1562.93	900
1561.15	889.5
1559.37	880
1557.58	899
1555.8	897.5
1554.02	881.5
1552.23	859.5
1550.45	858
1548.66	860
1546.87	852
1545.09	846.5
1543.3	851.5
1541.51	830.5
1539.72	820.5
1537.94	817
1536.15	840
1534.36	817.5
1532.57	801.5
1530.78	803
1528.99	813.5
1527.2	810.5
1525.4	797.5
1523.61	796.5
1521.82	783
1520.03	791
1518.23	769
1516.44	801.5
1514.65	782
1512.85	781.5
1511.06	784
1509.26	787.5
1507.46	756.5
1505.67	769.5
1503.87	782.5
1502.07	765.5
1500.28	772
1498.48	748
1496.68	759.5
1494.88	740
1493.08	739.5
1491.28	763
1489.48	758
1487.68	739
1485.88	763.5
1484.08	758.5
1482.27	746.5
1480.47	737
1478.67	725
1476.86	726
1475.06	739.5
1473.25	754
1471.45	744.5
1469.64	739.5
1467.84	751
1466.03	742
1464.23	743
1462.42	766
1460.61	764.5
1458.8	772
1456.99	747
1455.18	750.5
1453.37	760.5
1451.56	778
1449.75	777.5
1447.94	752
1446.13	764.5
1444.32	766
1442.51	772
1440.7	781
1438.88	733
1437.07	742.5
1435.26	727
1433.44	717.5
1431.63	709.5
1429.81	685
1427.99	689
1426.18	676
1424.36	673
1422.54	661
1420.73	662
1418.91	643.5
1417.09	648
1415.27	633.5
1413.45	631.5
1411.63	614
1409.81	616
1407.99	621
1406.17	630.5
1404.35	608
1402.53	594
1400.7	611
1398.88	589
1397.06	595
1395.23	573.5
1393.41	562
1391.58	587.5
1389.76	574
1387.93	572
1386.11	573
1384.28	592
1382.45	583.5
1380.62	577
1378.8	578
1376.97	575
1375.14	563.5
1373.31	568
1371.48	567
1369.65	555.5
1367.82	563.5
1365.99	554.5
1364.16	548.5
1362.32	537
1360.49	537.5
1358.66	537.5
1356.82	564
1354.99	518
1353.16	506
1351.32	534.5
1349.48	538
1347.65	533
1345.81	513
1343.98	514.5
1342.14	515.5
1340.3	506.5
1338.46	514
1336.62	491.5
1334.79	504.5
1332.95	521.5
1331.11	492
1329.27	527
1327.42	493
1325.58	518
1323.74	499
1321.9	515
1320.06	508
1318.21	510
1316.37	514
1314.53	516
1312.68	512.5
1310.84	527.5
1308.99	543.5
1307.15	524.5
1305.3	532.5
1303.45	523
1301.61	524.5
1299.76	539.5
1297.91	510.5
1296.06	509.5
1294.21	499.5
1292.36	490
1290.51	502
1288.66	485
1286.81	473.5
1284.96	474.5
1283.11	488
1281.26	474.5
1279.4	456
1277.55	489
1275.7	455
1273.84	458
1271.99	463.5
1270.13	479.5
1268.28	463
1266.42	459.5
1264.56	461.5
1262.71	458
1260.85	461.5
1258.99	466
1257.13	450.5
1255.27	426.5
1253.41	438.5
1251.56	420
1249.7	434.5
1247.83	425
1245.97	421
1244.11	409
1242.25	417.5
1240.39	409.5
1238.52	398
1236.66	398
1234.8	410.5
1232.93	402.5
1231.07	400.5
1229.2	401.5
1227.34	392
1225.47	387
1223.6	390
1221.74	378.5
1219.87	377
1218	373
1216.13	369
1214.26	391
1212.39	376.5
1210.53	385.5
1208.65	375
1206.78	378
1204.91	373.5
1203.04	363
1201.17	371
1199.3	363
1197.42	363
1195.55	370.5
1193.68	355
1191.8	353.5
1189.93	342
1188.05	370
1186.17	357
1184.3	343.5
1182.42	346.5
1180.54	357
1178.67	334.5
1176.79	346
1174.91	341.5
1173.03	336
1171.15	340
1169.27	338.5
1167.39	334
1165.51	342.5
1163.63	332.5
1161.75	342
1159.86	333
1157.98	330
1156.1	315.5
1154.21	324
1152.33	325
1150.44	327.5
1148.56	330
1146.67	335.5
1144.79	327.5
1142.9	338
1141.01	342.5
1139.12	332
1137.24	336.5
1135.35	339
1133.46	335
1131.57	342
1129.68	341.5
1127.79	329
1125.9	336
1124.01	334.5
1122.12	321
1120.22	323
1118.33	328
1116.44	327
1114.54	322.5
1112.65	308.5
1110.75	317
1108.86	310.5
1106.96	318.5
1105.07	320.5
1103.17	323.5
1101.27	319
1099.38	301.5
1097.48	335.5
1095.58	334
1093.68	335
1091.78	318
1089.88	335
1087.98	336
1086.08	328.5
1084.18	323
1082.28	324.5
1080.38	328.5
1078.47	315
1076.57	319
1074.67	331
1072.76	326
1070.86	310
1068.95	317
1067.05	312.5
1065.14	318.5
1063.24	312
1061.33	312
1059.42	304
1057.51	289.5
1055.6	291.5
1053.7	286.5
1051.79	284
1049.88	283.5
1047.97	273.5
1046.06	293
1044.14	288
1042.23	279
1040.32	282
1038.41	286
1036.5	286
1034.58	301
1032.67	296.5
1030.75	294
1028.84	273.5
1026.92	280.5
1025.01	282
1023.09	288
1021.17	287.5
1019.26	286.5
1017.34	286
1015.42	299
1013.5	292
1011.58	288.5
1009.66	294.5
1007.74	291
1005.82	292
1003.9	304
1001.98	298.5
1000.06	317.5
998.134	298
996.212	326
994.288	312.5
992.364	333.5
990.44	337.5
988.515	350.5
986.589	361.5
984.663	388
982.737	371
980.81	382.5
978.883	391.5
976.955	383
975.027	385
973.098	407.5
971.169	377.5
969.239	410.5
967.308	399
965.378	403
963.447	400
961.516	402
959.583	416
957.65	421.5
955.718	423
953.784	418
951.85	413.5
949.916	430
947.981	453
946.045	445
944.109	453.5
942.173	434.5
940.236	454
938.298	446
936.36	409.5
934.422	405.5
932.484	379
930.544	352
928.604	325.5
926.664	304
924.724	280
922.782	287.5
920.84	280
918.898	267
916.955	260
915.012	266.5
913.068	274.5
911.124	261
909.18	274.5
907.235	266.5
905.289	263
903.343	268
901.397	266.5
899.45	282
897.502	269
895.554	263
893.605	260.5
891.657	262
889.707	267
887.758	254
885.807	266
883.856	245
881.905	264
879.953	265.5
878.001	261.5
876.048	281
874.094	266
872.14	266
870.186	276.5
868.232	264
866.276	257
864.321	269.5
862.365	269
860.408	260
858.451	253
856.493	255
854.535	242.5
852.576	262.5
850.617	253.5
848.658	242
846.698	257.5
844.737	250
842.776	246.5
840.814	238
838.852	246
836.89	240
834.927	243.5
832.963	248.5
830.999	234.5
829.035	236
827.07	231
825.105	237
823.139	224
821.172	217.5
819.206	226
817.238	223
815.27	229
813.301	230
811.333	223
809.363	225.5
807.394	218
805.424	216
803.453	215
801.482	206
799.509	211
797.538	204
795.565	191.5
793.592	206.5
791.618	197.5
789.643	214
787.669	198
785.693	199
783.718	200.5
781.742	197.5
779.765	190
777.788	190
775.811	191
773.832	203
771.853	192.5
769.875	195.5
767.895	188.5
765.915	189.5
763.934	192.5
761.953	196.5
759.972	201
757.99	184
756.007	182.5
754.024	190.5
752.041	186.5
750.056	186
748.072	177
746.087	198.5
744.102	184.5
742.116	186
740.13	200
738.143	189.5
736.155	197.5
734.167	182
732.179	195.5
730.19	189.5
728.2	186.5
726.21	185
724.22	179.5
722.229	190
720.237	181
718.246	189.5
716.253	182
714.26	180
712.267	200
710.273	188
708.279	184
706.284	186
704.289	181.5
702.293	191.5
700.296	183
698.3	186
696.303	188
694.305	185.5
692.307	189
690.307	194
688.308	185
686.309	194
684.308	194
682.308	197.5
680.306	180.5
678.304	198.5
676.302	195
674.3	210
672.296	206
670.293	209
668.289	209
666.284	203.5
664.278	197
662.273	204.5
660.266	206
658.26	203
656.252	203.5
654.244	204
652.237	200
650.227	194.5
648.218	200.5
646.209	194
644.198	197
642.188	202
640.177	205
638.165	202
636.153	195.5
634.14	201
632.128	209
630.113	208
628.099	213
626.085	205.5
624.07	215.5
622.054	215
620.038	222
618.021	212
616.004	212
613.986	220
611.968	212.5
609.949	208.5
607.93	192
605.911	196.5
603.891	203.5
601.87	210.5
599.848	192
597.827	189.5
595.805	199.5
593.782	194.5
591.759	189.5
589.735	202
587.711	198.5
585.687	204
583.661	202
581.636	201
579.609	195
577.583	195.5
575.555	195
573.527	212.5
571.5	210.5
569.471	210.5
567.441	218.5
565.412	206.5
563.382	217.5
561.351	212
559.32	220.5
557.289	224.5
555.257	230
553.223	241.5
551.19	249
549.157	263
547.122	276.5
545.088	306.5
543.053	319.5
541.017	364
538.981	398.5
536.943	486
534.907	603
532.869	834
530.831	1196
528.792	1829.5
526.752	2865.5
524.713	4350.5
522.673	5423
520.632	5270.5
518.591	4237.5
516.549	3013.5
514.507	1964
512.464	1268
510.42	833.5
508.377	601.5
506.332	464
504.288	390.5
502.242	355
500.196	317.5
498.15	313
496.104	280
494.056	276.5
492.008	281.5
489.96	255.5
487.911	257.5
485.862	243.5
483.812	247.5
481.761	247.5
479.71	225.5
477.659	228.5
475.607	230.5
473.555	229
471.502	233
469.448	223
467.395	223.5
465.34	223
463.285	215
461.23	216
459.174	221.5
457.118	223
455.061	221
453.003	227
450.945	225
448.887	231
446.828	241.5
444.768	246.5
442.708	236
440.647	242.5
438.587	247
436.525	254.5
434.463	258
432.4	233.5
430.337	258
428.274	255
426.21	238
424.145	247.5
422.079	239.5
420.014	244
417.948	243
415.882	249
413.814	257.5
411.746	253.5
409.679	260
407.609	248.5
405.54	248.5
403.47	255
401.401	254.5
399.329	248
397.258	257
395.187	254
393.114	246
391.041	251
388.968	260.5
386.895	265.5
384.82	263
382.745	272
380.67	270.5
378.594	265
376.517	262.5
374.44	275
372.363	257
370.286	264.5
368.207	273
366.128	270.5
364.049	268
361.969	278.5
359.888	271
357.807	275.5
355.725	276
353.643	274
351.561	272.5
349.477	281
347.394	274
345.31	297.5
343.226	297.5
341.141	294
339.055	280
336.968	309.5
334.882	309
332.795	316.5
330.707	317.5
328.618	327
326.53	332.5
324.44	349.5
322.351	331.5
320.26	360
318.17	377.5
316.078	383.5
313.987	403.5
311.895	419.5
309.802	451.5
307.708	468
305.614	477.5
303.52	475.5
301.425	470
299.329	452.5
297.233	430
295.137	416
293.039	392
290.942	369.5
288.844	364
286.745	355
284.647	344
282.546	337.5
280.446	342
278.346	336
276.245	323
274.143	324
272.041	325.5
269.939	330.5
267.835	333
265.731	312.5
263.627	320.5
261.522	329
259.417	314
257.311	315.5
255.204	329
253.098	321
250.99	311
248.882	331.5
246.774	320
244.664	323.5
242.555	324.5
240.445	327.5
238.334	328.5
236.223	337.5
234.112	325.5
232	335
229.888	322.5
227.775	332.5
225.661	329
223.546	332
221.431	314.5
219.316	326
217.201	330
215.084	318
212.967	308.5
210.85	323
208.732	322
206.614	337
204.495	336
202.375	317.5
200.256	318
198.135	338
196.014	311
193.893	330.5
191.771	336
189.648	336
187.525	339
185.401	341.5
183.277	338
181.152	351
179.027	347
176.901	348.5
174.775	354
172.648	345
170.521	357
168.393	378.5
166.265	370
164.136	387
162.007	387
159.876	389
157.746	407.5
155.615	397
153.483	414
151.351	410
149.219	435.5
147.086	444.5
144.952	443.5
142.818	475
140.684	470.5
138.548	490.5
136.413	499.5
134.276	513.5
132.139	536
130.002	549.5
127.864	548
125.725	564.5
123.587	597.5
121.447	590
119.307	603.5
117.166	625
115.026	648
112.885	682.5
110.743	682
108.6	715
106.456	696
104.313	708
102.169	669.5
100.023	667.5
97.8789	617.5
95.7328	565.5
93.5869	502.5
91.4392	432
89.2919	360
87.1447	295.5
84.9959	230.5
