3528.51	206.5
3527.23	227
3525.95	225
3524.67	251.5
3523.39	243
3522.1	254
3520.82	249
3519.54	264
3518.26	260
3516.97	251
3515.69	249.5
3514.4	257.5
3513.12	250
3511.84	248
3510.55	263
3509.26	254
3507.98	267.5
3506.69	265.5
3505.41	266
3504.12	265
3502.83	277.5
3501.54	278
3500.26	271.5
3498.97	273.5
3497.68	272.5
3496.39	278
3495.1	291.5
3493.81	294
3492.52	297.5
3491.23	310.5
3489.94	308
3488.65	302.5
3487.36	327.5
3486.07	319
3484.78	319.5
3483.49	323.5
3482.19	342.5
3480.9	342.5
3479.61	335.5
3478.31	344
3477.02	340
3475.73	349.5
3474.43	360
3473.14	364.5
3471.84	377.5
3470.54	345.5
3469.25	370.5
3467.95	379
3466.66	390
3465.36	371.5
3464.06	386
3462.76	388
3461.46	389.5
3460.17	386
3458.87	391.5
3457.57	381.5
3456.27	390
3454.97	406
3453.67	407
3452.37	404
3451.07	410
3449.77	411
3448.47	423.5
3447.16	443.5
3445.86	428
3444.56	457
3443.26	438
3441.95	464.5
3440.65	464
3439.35	471
3438.04	488.5
3436.74	481
3435.43	479.5
3434.13	490
3432.82	513.5
3431.52	525.5
3430.21	526
3428.9	550
3427.6	544
3426.29	545.5
3424.98	559.5
3423.67	574.5
3422.36	598
3421.06	586.5
3419.75	614
3418.44	582
3417.13	595
3415.82	635.5
3414.51	617
3413.2	633
3411.88	639.5
3410.57	650.5
3409.26	655
3407.95	662
3406.64	646
3405.32	647.5
3404.01	689.5
3402.7	679
3401.38	683
3400.07	668
3398.75	684.5
3397.44	719
3396.12	685
3394.81	724.5
3393.49	699
3392.18	712.5
3390.86	731
3389.54	724.5
3388.23	740
3386.91	752.5
3385.59	741.5
3384.27	782.5
3382.95	754
3381.63	766
3380.31	783.5
3378.99	774
3377.67	797
3376.35	822
3375.03	804
3373.71	823.5
3372.39	834.5
3371.07	823
3369.75	840.5
3368.42	842.5
3367.1	848
3365.78	854.5
3364.45	883.5
3363.13	873
3361.81	861
3360.48	862
3359.16	882.5
3357.83	893
3356.51	893
3355.18	905.5
3353.85	902
3352.53	912
3351.2	923
3349.87	903
3348.54	920.5
3347.22	938.5
3345.89	918.5
3344.56	938.5
3343.23	941
3341.9	943
3340.57	941.5
3339.24	946.5
3337.91	970.5
3336.58	947
3335.25	953
3333.92	958
3332.58	962.5
3331.25	957.5
3329.92	967
3328.59	972.5
3327.25	986
3325.92	951
3324.58	988
3323.25	973.5
3321.92	1006
3320.58	1010
3319.25	1013
3317.91	1007.5
3316.57	1004
3315.24	1027.5
3313.9	1015.5
3312.56	1016
3311.23	1025.5
3309.89	1022.5
3308.55	1044.5
3307.21	1064.5
3305.87	1054.5
3304.53	1069
3303.19	1077.5
3301.85	1055.5
3300.51	1078.5
3299.17	1078.5
3297.83	1061.5
3296.49	1076
3295.15	1091
3293.81	1086
3292.46	1115
3291.12	1090.5
3289.78	1101.5
3288.43	1092.5
3287.09	1115
3285.75	1104.5
3284.4	1124.5
3283.06	1127
3281.71	1139
3280.37	1147.5
3279.02	1136
3277.67	1135
3276.33	1147.5
3274.98	1162
3273.63	1171.5
3272.28	1170.5
3270.94	1169.5
3269.59	1184.5
3268.24	1192.5
3266.89	1225
3265.54	1238
3264.19	1228
3262.84	1282
3261.49	1287.5
3260.14	1285
3258.79	1303.5
3257.44	1342
3256.08	1337
3254.73	1383
3253.38	1398.5
3252.03	1438
3250.67	1465.5
3249.32	1522
3247.96	1495
3246.61	1562.5
3245.26	1616.5
3243.9	1646.5
3242.54	1678.5
3241.19	1716.5
3239.83	1811
3238.48	1849
3237.12	1876.5
3235.76	1931
3234.41	1971
3233.05	2030
3231.69	2064.5
3230.33	2096
3228.97	2178
3227.61	2194
3226.25	2226
3224.89	2248.5
3223.53	2319
3222.17	2375
3220.81	2392.5
3219.45	2431
3218.09	2472.5
3216.72	2514
3215.36	2487
3214	2524.5
3212.63	2551
3211.27	2556.5
3209.91	2562
3208.54	2621.5
3207.18	2635
3205.81	2646.5
3204.45	2647
3203.08	2636
3201.71	2684.5
3200.35	2712
3198.98	2697
3197.61	2737.5
3196.25	2763
3194.88	2772
3193.51	2800
3192.14	2786
3190.77	2774
3189.4	2814
3188.03	2810.5
3186.66	2822.5
3185.29	2848
3183.92	2846
3182.55	2869
3181.18	2879.5
3179.81	2871
3178.44	2915.5
3177.06	2918.5
3175.69	2939
3174.32	2954
3172.94	3009.5
3171.57	3040
3170.2	3042
3168.82	3083.5
3167.45	3076.5
3166.07	3115
3164.69	3137
3163.32	3153
3161.94	3201.5
3160.56	3191.5
3159.19	3239
3157.81	3260
3156.43	3243.5
3155.05	3326.5
3153.67	3306.5
3152.3	3371.5
3150.92	3376
3149.54	3376.5
3148.16	3391.5
3146.78	3442
3145.4	3445
3144.01	3470
3142.63	3520.5
3141.25	3522
3139.87	3539
3138.49	3525.5
3137.1	3622
3135.72	3589
3134.34	3635
3132.95	3636
3131.57	3667.5
3130.18	3714
3128.8	3735
3127.41	3799
3126.03	3783.5
3124.64	3839.5
3123.25	3819
3121.87	3877.5
3120.48	3860
3119.09	3900.5
3117.7	3895
3116.32	3899
3114.93	3937.5
3113.54	3961.5
3112.15	4004
3110.76	3997
3109.37	4031
3107.98	4061.5
3106.59	4075
3105.2	4083.5
3103.8	4087
3102.41	4114
3101.02	4126
3099.63	4170
3098.23	4144.5
3096.84	4164.5
3095.45	4241
3094.05	4225
3092.66	4223
3091.26	4243.5
3089.87	4270
3088.47	4254.5
3087.08	4313
3085.68	4282.5
3084.28	4325.5
3082.89	4331
3081.49	4324.5
3080.09	4353
3078.69	4382
3077.3	4347
3075.9	4395
3074.5	4371
3073.1	4367.5
3071.7	4425
3070.3	4440
3068.9	4436.5
3067.5	4453
3066.09	4426.5
3064.69	4431
3063.29	4422.5
3061.89	4457.5
3060.48	4497.5
3059.08	4508
3057.68	4474.5
3056.27	4554
3054.87	4508
3053.46	4551
3052.06	4561
3050.65	4566.5
3049.25	4556.5
3047.84	4581.5
3046.44	4599
3045.03	4632
3043.62	4630
3042.21	4684.5
3040.81	4644
3039.4	4718
3037.99	4705
3036.58	4714.5
3035.17	4756
3033.76	4708.5
3032.35	4669
3030.94	4738
3029.53	4726.5
3028.12	4775
3026.71	4753.5
3025.29	4797.5
3023.88	4796.5
3022.47	4771
3021.06	4744.5
3019.64	4792
3018.23	4773
3016.82	4771
3015.4	4811
3013.99	4801
3012.57	4821
3011.15	4853.5
3009.74	4858
3008.32	4894.5
3006.91	4926
3005.49	4880
3004.07	4882.5
3002.65	4931
3001.24	4890
2999.82	4893.5
2998.4	4937
2996.98	4970.5
2995.56	4997.5
2994.14	5004.5
2992.72	5034.5
2991.3	5053.5
2989.88	5087.5
2988.46	5087.5
2987.03	5066.5
2985.61	5159
2984.19	5194.5
2982.77	5207
2981.34	5272
2979.92	5276
2978.49	5322
2977.07	5356.5
2975.65	5381
2974.22	5339
2972.79	5392
2971.37	5415.5
2969.94	5445.5
2968.52	5483
2967.09	5444.5
2965.66	5471.5
2964.23	5482
2962.81	5461.5
2961.38	5485
2959.95	5510.5
2958.52	5514
2957.09	5544
2955.66	5556.5
2954.23	5562
2952.8	5598.5
2951.37	5582.5
2949.94	5600
2948.5	5537.5
2947.07	5618
2945.64	5602
2944.21	5588.5
2942.77	5615.5
2941.34	5646
2939.91	5614.5
2938.47	5657.5
2937.04	5710.5
2935.6	5699.5
2934.17	5663.5
2932.73	5696
2931.29	5734
2929.86	5775.5
2928.42	5760
2926.98	5804.5
2925.55	5787
2924.11	5753
2922.67	5799
2921.23	5816
2919.79	5810.5
2918.35	5821
2916.91	5805.5
2915.47	5804
2914.03	5851.5
2912.59	5813
2911.15	5851
2909.71	5863.5
2908.26	5852
2906.82	5881.5
2905.38	5859.5
2903.94	5840
2902.49	5935.5
2901.05	5873
2899.6	5915
2898.16	5931.5
2896.71	5961.5
2895.27	5987.5
2893.82	5915.5
2892.38	5958.5
2890.93	5947
2889.48	5969
2888.03	5978.5
2886.59	5977
2885.14	5990.5
2883.69	5986
2882.24	6023
2880.79	6040
2879.34	6037
2877.89	6020.5
2876.44	6072.5
2874.99	6131.5
2873.54	6055
2872.09	6067
2870.64	5993.5
2869.18	6044.5
2867.73	6102
2866.28	6064
2864.83	6087.5
2863.37	6037
2861.92	6085
2860.46	6090.5
2859.01	6107.5
2857.55	6118
2856.1	6100
2854.64	6089.5
2853.19	6074.5
2851.73	6065
2850.27	6066
2848.81	6022.5
2847.36	6111.5
2845.9	6093
2844.44	6149
2842.98	6115.5
2841.52	6077.5
2840.06	6087.5
2838.6	6105.5
2837.14	6110
2835.68	6039.5
2834.22	6130
2832.76	6115
2831.3	6075.5
2829.83	6091.5
2828.37	6123
2826.91	6059.5
2825.44	6003.5
2823.98	6079
2822.52	6020.5
2821.05	6058.5
2819.59	6072
2818.12	6062
2816.66	6058.5
2815.19	6066
2813.72	6028
2812.26	6017.5
2810.79	6000
2809.32	6023.5
2807.85	5952.5
2806.38	6040.5
2804.92	6011.5
2803.45	5997.5
2801.98	6015
2800.51	5946
2799.04	5981.5
2797.57	5997.5
2796.1	5988.5
2794.62	5974
2793.15	5917.5
2791.68	5986
2790.21	5972
2788.73	5962
2787.26	5912.5
2785.79	5939
2784.31	5939
2782.84	5966
2781.36	5960
2779.89	5909.5
2778.41	5986.5
2776.94	5971.5
2775.46	6029.5
2773.99	5987.5
2772.51	6000
2771.03	6040
2769.55	6073
2768.07	6008
2766.6	6054
2765.12	6049.5
2763.64	6059
2762.16	6067
2760.68	6094
2759.2	6052.5
2757.72	6081
2756.24	6060
2754.75	6036.5
2753.27	6103.5
2751.79	6067
2750.31	6116
2748.82	6039
2747.34	6043.5
2745.86	6011
2744.37	6018
2742.89	6021
2741.4	6032.5
2739.92	6027.5
2738.43	5984
2736.94	5996
2735.46	5986.5
2733.97	6009
2732.48	5978.5
2731	6017
2729.51	6021
2728.02	6018.5
2726.53	6017
2725.04	5953.5
2723.55	5931.5
2722.06	5910.5
2720.57	5964
2719.08	5960
2717.59	5945.5
2716.1	5943
2714.61	5963.5
2713.11	5928
2711.62	5972
2710.13	5927
2708.64	5953
2707.14	5953
2705.65	5908
2704.15	5979
2702.66	5925
2701.16	5898
2699.67	5869
2698.17	5937
2696.67	5879
2695.18	5892
2693.68	5847
2692.18	5856.5
2690.69	5869.5
2689.19	5885
2687.69	5843
2686.19	5768.5
2684.69	5789.5
2683.19	5816
2681.69	5758
2680.19	5802.5
2678.69	5736.5
2677.19	5744
2675.68	5755.5
2674.18	5750
2672.68	5719.5
2671.18	5755
2669.67	5731.5
2668.17	5738.5
2666.66	5691.5
2665.16	5715
2663.66	5734
2662.15	5722
2660.64	5682
2659.14	5668.5
2657.63	5698.5
2656.13	5617.5
2654.62	5610.5
2653.11	5636
2651.6	5683.5
2650.09	5624.5
2648.58	5628.5
2647.08	5612
2645.57	5583
2644.06	5563.5
2642.55	5551
2641.04	5589.5
2639.52	5541
2638.01	5511.5
2636.5	5525.5
2634.99	5538
2633.48	5473.5
2631.96	5478
2630.45	5477.5
2628.94	5433.5
2627.42	5445.5
2625.91	5406.5
2624.39	5438.5
2622.88	5414.5
2621.36	5380.5
2619.85	5410.5
2618.33	5407
2616.81	5384
2615.3	5423.5
2613.78	5360
2612.26	5341.5
2610.74	5373.5
2609.22	5371.5
2607.7	5328
2606.18	5309.5
2604.66	5300
2603.14	5311
2601.62	5227
2600.1	5276.5
2598.58	5178
2597.06	5167.5
2595.54	5165
2594.01	5166.5
2592.49	5149
2590.97	5179.5
2589.44	5126
2587.92	5130.5
2586.39	5095
2584.87	5193.5
2583.34	5190.5
2581.82	5106
2580.29	5147
2578.76	5126
2577.24	5143
2575.71	5151
2574.18	5070
2572.65	5120
2571.13	5079.5
2569.6	5077
2568.07	5061
2566.54	5099.5
2565.01	5073
2563.48	5090.5
2561.95	5073.5
2560.42	5062
2558.88	5048
2557.35	5033.5
2555.82	5071
2554.29	5001
2552.75	4991
2551.22	4996.5
2549.69	4923
2548.15	4932.5
2546.62	4947
2545.08	4952
2543.55	4902.5
2542.01	4897
2540.47	4895.5
2538.94	4852.5
2537.4	4876
2535.86	4852
2534.33	4766
2532.79	4818
2531.25	4780.5
2529.71	4841.5
2528.17	4748
2526.63	4718
2525.09	4776.5
2523.55	4755.5
2522.01	4710.5
2520.47	4715.5
2518.92	4734.5
2517.38	4673
2515.84	4698
2514.3	4699.5
2512.75	4630.5
2511.21	4655
2509.67	4636
2508.12	4589.5
2506.58	4622
2505.03	4604
2503.49	4576.5
2501.94	4576.5
2500.39	4593.5
2498.85	4568.5
2497.3	4588.5
2495.75	4523.5
2494.2	4548
2492.65	4486
2491.11	4469
2489.56	4488.5
2488.01	4436.5
2486.46	4471.5
2484.91	4383
2483.36	4435
2481.8	4399.5
2480.25	4421.5
2478.7	4413
2477.15	4380.5
2475.6	4392
2474.04	4316.5
2472.49	4336.5
2470.93	4276
2469.38	4284
2467.83	4256
2466.27	4240.5
2464.71	4241
2463.16	4220.5
2461.6	4188.5
2460.05	4185
2458.49	4147.5
2456.93	4155.5
2455.37	4153
2453.81	4077
2452.26	4080.5
2450.7	4043.5
2449.14	4042
2447.58	4002.5
2446.02	3984
2444.46	4001.5
2442.9	3955.5
2441.33	3942.5
2439.77	3929.5
2438.21	3925.5
2436.65	3932
2435.08	3940.5
2433.52	3939.5
2431.96	3909
2430.39	3919.5
2428.83	3864.5
2427.26	3853
2425.7	3902
2424.13	3871.5
2422.56	3837.5
2421	3883.5
2419.43	3793.5
2417.86	3798
2416.3	3785.5
2414.73	3800
2413.16	3809.5
2411.59	3775.5
2410.02	3745.5
2408.45	3766.5
2406.88	3768
2405.31	3777
2403.74	3772.5
2402.17	3742.5
2400.6	3785
2399.02	3780
2397.45	3701
2395.88	3746.5
2394.3	3698.5
2392.73	3730.5
2391.16	3675
2389.58	3656.5
2388.01	3655
2386.43	3649
2384.86	3661.5
2383.28	3642
2381.7	3660
2380.13	3649
2378.55	3664.5
2376.97	3651
2375.39	3614
2373.81	3640
2372.23	3615
2370.65	3588.5
2369.07	3609
2367.49	3614.5
2365.91	3549.5
2364.33	3571.5
2362.75	3565
2361.17	3574
2359.59	3510
2358.01	3529.5
2356.42	3506
2354.84	3556.5
2353.25	3516
2351.67	3499.5
2350.09	3498
2348.5	3516.5
2346.92	3491
2345.33	3485
2343.74	3468.5
2342.16	3502
2340.57	3528
2338.98	3492
2337.39	3473.5
2335.81	3451
2334.22	3437
2332.63	3418.5
2331.04	3383
2329.45	3405
2327.86	3430.5
2326.27	3432.5
2324.68	3430.5
2323.09	3353.5
2321.49	3376
2319.9	3364.5
2318.31	3337
2316.72	3337
2315.12	3301
2313.53	3307.5
2311.93	3274
2310.34	3273.5
2308.74	3275
2307.15	3241.5
2305.55	3278.5
2303.96	3246.5
2302.36	3233.5
2300.76	3210
2299.17	3173
2297.57	3175.5
2295.97	3191
2294.37	3180
2292.77	3139
2291.17	3159
2289.57	3140.5
2287.97	3072.5
2286.37	3162
2284.77	3114.5
2283.17	3107
2281.57	3085.5
2279.96	3113
2278.36	3083.5
2276.76	3098
2275.15	3071.5
2273.55	3063.5
2271.95	3069.5
2270.34	3055.5
2268.74	3040.5
2267.13	3027
2265.52	2982
2263.92	2997
2262.31	2940
2260.7	2935
2259.1	2946
2257.49	2949.5
2255.88	2948
2254.27	2939
2252.66	2956
2251.05	2948.5
2249.44	2940
2247.83	2930
2246.22	2924
2244.61	2890
2243	2950
2241.39	2932
2239.77	2949.5
2238.16	2886.5
2236.55	2881
2234.93	2866
2233.32	2855.5
2231.7	2819
2230.09	2835.5
2228.47	2771
2226.86	2795.5
2225.24	2792
2223.63	2789.5
2222.01	2769.5
2220.39	2779.5
2218.77	2748
2217.16	2730.5
2215.54	2721
2213.92	2708
2212.3	2707
2210.68	2643
2209.06	2706
2207.44	2683.5
2205.82	2607.5
2204.19	2618.5
2202.57	2648
2200.95	2623.5
2199.33	2629.5
2197.7	2612
2196.08	2611
2194.46	2588.5
2192.83	2576
2191.21	2566
2189.58	2607.5
2187.96	2582.5
2186.33	2572
2184.7	2577
2183.08	2569.5
2181.45	2526.5
2179.82	2510
2178.19	2541
2176.57	2492.5
2174.94	2479
2173.31	2477.5
2171.68	2487.5
2170.05	2451.5
2168.42	2467.5
2166.79	2449
2165.16	2431
2163.52	2417.5
2161.89	2445
2160.26	2418
2158.63	2420.5
2156.99	2410
2155.36	2420
2153.73	2376
2152.09	2367
2150.46	2352
2148.82	2400
2147.18	2329
2145.55	2338
2143.91	2315.5
2142.27	2296.5
2140.64	2323
2139	2281
2137.36	2325
2135.72	2265.5
2134.08	2258
2132.44	2261.5
2130.8	2233
2129.16	2215
2127.52	2208.5
2125.88	2179.5
2124.24	2174.5
2122.6	2151
2120.95	2160
2119.31	2160.5
2117.67	2122.5
2116.02	2113
2114.38	2137.5
2112.74	2135
2111.09	2123.5
2109.45	2106
2107.8	2136.5
2106.15	2120
2104.51	2044.5
2102.86	2066
2101.21	2052
2099.56	2047
2097.92	2031
2096.27	2068
2094.62	2068
2092.97	2027
2091.32	2045
2089.67	2018.5
2088.02	2055
2086.37	2007
2084.72	2011.5
2083.06	2036
2081.41	2013.5
2079.76	2014
2078.1	2008
2076.45	2011.5
2074.8	2001.5
2073.14	1990
2071.49	1998.5
2069.83	2013.5
2068.18	1974.5
2066.52	2012
2064.86	2004
2063.21	1971.5
2061.55	1985.5
2059.89	1948
2058.23	1966
2056.57	1933
2054.92	1943.5
2053.26	1952
2051.6	1922.5
2049.94	1915.5
2048.27	1919.5
2046.61	1942
2044.95	1921.5
2043.29	1918
2041.63	1857
2039.97	1867.5
2038.3	1849.5
2036.64	1836
2034.97	1845.5
2033.31	1841.5
2031.64	1820
2029.98	1832.5
2028.31	1810.5
2026.65	1794.5
2024.98	1773.5
2023.31	1753.5
2021.65	1752
2019.98	1769
2018.31	1765.5
2016.64	1738
2014.97	1726
2013.3	1713
2011.63	1714.5
2009.96	1693.5
2008.29	1699.5
2006.62	1681
2004.95	1665.5
2003.28	1649
2001.6	1675
1999.93	1652.5
1998.26	1658.5
1996.58	1656.5
1994.91	1675.5
1993.24	1638
1991.56	1660
1989.89	1620
1988.21	1612.5
1986.53	1613.5
1984.86	1645.5
1983.18	1625.5
1981.5	1620.5
1979.82	1601
1978.15	1584.5
1976.47	1553.5
1974.79	1572
1973.11	1587
1971.43	1560.5
1969.75	1545
1968.07	1540.5
1966.38	1542
1964.7	1525.5
1963.02	1535.5
1961.34	1538
1959.66	1501.5
1957.97	1517.5
1956.29	1503
1954.6	1508.5
1952.92	1497
1951.23	1488
1949.55	1482.5
1947.86	1494
1946.18	1435.5
1944.49	1478.5
1942.8	1460
1941.11	1453.5
1939.43	1448
1937.74	1439.5
1936.05	1453
1934.36	1437
1932.67	1406.5
1930.98	1419.5
1929.29	1420.5
1927.6	1394
1925.91	1380.5
1924.21	1391
1922.52	1378
1920.83	1374.5
1919.14	1376.5
1917.44	1325
1915.75	1353.5
1914.05	1334.5
1912.36	1365.5
1910.66	1364
1908.97	1343
1907.27	1335
1905.58	1321
1903.88	1340
1902.18	1320.5
1900.48	1325.5
1898.79	1290
1897.09	1286.5
1895.39	1291
1893.69	1287.5
1891.99	1261.5
1890.29	1297
1888.59	1258
1886.89	1252
1885.18	1237.5
1883.48	1248
1881.78	1246
1880.08	1249.5
1878.37	1193
1876.67	1225
1874.96	1222.5
1873.26	1201
1871.55	1186
1869.85	1190.5
1868.14	1193.5
1866.44	1165
1864.73	1183.5
1863.02	1154.5
1861.32	1157
1859.61	1150.5
1857.9	1152.5
1856.19	1145
1854.48	1137
1852.77	1123.5
1851.06	1131
1849.35	1139
1847.64	1129.5
1845.93	1111.5
1844.21	1123.5
1842.5	1093.5
1840.79	1119
1839.08	1087.5
1837.36	1102
1835.65	1097.5
1833.93	1086
1832.22	1092.5
1830.5	1100
1828.79	1072
1827.07	1066.5
1825.36	1080
1823.64	1048
1821.92	1029.5
1820.2	1022.5
1818.48	1024
1816.77	1048
1815.05	1019.5
1813.33	1031.5
1811.61	988.5
1809.89	999
1808.16	1012
1806.44	1007
1804.72	1002
1803	987
1801.28	974
1799.55	973
1797.83	999
1796.11	981.5
1794.38	952
1792.66	975.5
1790.93	952
1789.21	970.5
1787.48	934
1785.75	953
1784.03	946.5
1782.3	930.5
1780.57	936.5
1778.84	935.5
1777.11	933.5
1775.38	923
1773.66	929.5
1771.93	917
1770.19	922.5
1768.46	921.5
1766.73	906
1765	906
1763.27	921.5
1761.54	900
1759.8	895
1758.07	868
1756.34	913
1754.6	902.5
1752.87	903
1751.13	903
1749.4	873
1747.66	893
1745.92	890.5
1744.19	877
1742.45	880.5
1740.71	895
1738.97	866.5
1737.23	871
1735.49	880.5
1733.75	842
1732.01	872.5
1730.27	869.5
1728.53	865
1726.79	859.5
1725.05	838
1723.31	857
1721.57	849
1719.82	835.5
1718.08	844
1716.34	816
1714.59	801.5
1712.85	816.5
1711.1	815.5
1709.36	796.5
1707.61	804
1705.86	778
1704.12	791.5
1702.37	799.5
1700.62	790.5
1698.87	777.5
1697.12	776.5
1695.37	769
1693.62	752.5
1691.87	763.5
1690.12	762.5
1688.37	740.5
1686.62	759.5
1684.87	743
1683.12	744
1681.36	732
1679.61	722.5
1677.86	722.5
1676.1	731
1674.35	735.5
1672.59	725
1670.84	690
1669.08	710.5
1667.33	711.5
1665.57	724
1663.81	726
1662.06	741
1660.3	748.5
1658.54	733.5
1656.78	733
1655.02	740.5
1653.26	714
1651.5	728.5
1649.74	702
1647.98	701.5
1646.22	696
1644.46	690.5
1642.7	699
1640.93	696
1639.17	676.5
1637.41	695
1635.64	681.5
1633.88	663
1632.11	661
1630.35	665.5
1628.58	661
1626.81	652
1625.05	636.5
1623.28	647.5
1621.51	650.5
1619.75	647
1617.98	644.5
1616.21	637.5
1614.44	632.5
1612.67	633.5
1610.9	624.5
1609.13	618
1607.36	621.5
1605.58	632.5
1603.81	631.5
1602.04	609.5
1600.27	629
1598.49	639
1596.72	605
1594.95	616.5
1593.17	607.5
1591.4	605
1589.62	606
1587.84	589
1586.07	614
1584.29	594.5
1582.51	588.5
1580.74	589
1578.96	595.5
1577.18	601
1575.4	576
1573.62	584.5
1571.84	577.5
1570.06	577
1568.28	582
1566.5	566.5
1564.72	566.5
1562.93	565
1561.15	585
1559.37	571
1557.58	577
1555.8	558
1554.02	554.5
1552.23	545
1550.45	544.5
1548.66	540
1546.87	537.5
1545.09	543
1543.3	550
1541.51	526
1539.72	532.5
1537.94	525
1536.15	534.5
1534.36	519
1532.57	510
1530.78	507
1528.99	514
1527.2	510.5
1525.4	512
1523.61	500.5
1521.82	497.5
1520.03	510
1518.23	498.5
1516.44	503.5
1514.65	497.5
1512.85	488
1511.06	497.5
1509.26	481
1507.46	483
1505.67	478
1503.87	495
1502.07	488
1500.28	488.5
1498.48	475.5
1496.68	493
1494.88	478
1493.08	479
1491.28	472.5
1489.48	489
1487.68	473.5
1485.88	489
1484.08	486
1482.27	482
1480.47	477.5
1478.67	472
1476.86	493.5
1475.06	480.5
1473.25	473
1471.45	466.5
1469.64	478
1467.84	495.5
1466.03	493
1464.23	484.5
1462.42	491
1460.61	518.5
1458.8	518
1456.99	516
1455.18	503
1453.37	526
1451.56	517
1449.75	539
1447.94	513
1446.13	540
1444.32	540.5
1442.51	521
1440.7	525.5
1438.88	509.5
1437.07	524.5
1435.26	513
1433.44	492.5
1431.63	469
1429.81	454
1427.99	452.5
1426.18	439
1424.36	452
1422.54	438
1420.73	428.5
1418.91	418
1417.09	428
1415.27	418
1413.45	414
1411.63	407
1409.81	404
1407.99	407
1406.17	394
1404.35	410
1402.53	392.5
1400.7	391.5
1398.88	404.5
1397.06	397
1395.23	376
1393.41	382
1391.58	389.5
1389.76	378.5
1387.93	398
1386.11	388
1384.28	374
1382.45	389
1380.62	382
1378.8	387.5
1376.97	387.5
1375.14	383
1373.31	391
1371.48	362
1369.65	377
1367.82	361
1365.99	369.5
1364.16	369.5
1362.32	346
1360.49	361.5
1358.66	365
1356.82	346
1354.99	375
1353.16	355
1351.32	367.5
1349.48	353.5
1347.65	360.5
1345.81	351
1343.98	363.5
1342.14	341
1340.3	351.5
1338.46	337.5
1336.62	344.5
1334.79	351.5
1332.95	338.5
1331.11	346.5
1329.27	344.5
1327.42	337.5
1325.58	335
1323.74	342
1321.9	341
1320.06	358.5
1318.21	344.5
1316.37	361
1314.53	368.5
1312.68	368
1310.84	372.5
1308.99	372.5
1307.15	380
1305.3	382
1303.45	384
1301.61	379
1299.76	370.5
1297.91	368
1296.06	350
1294.21	358
1292.36	349
1290.51	338.5
1288.66	333.5
1286.81	332
1284.96	327.5
1283.11	324
1281.26	318.5
1279.4	320.5
1277.55	327.5
1275.7	328
1273.84	325
1271.99	336.5
1270.13	332.5
1268.28	329.5
1266.42	324.5
1264.56	328
1262.71	307.5
1260.85	309
1258.99	303.5
1257.13	310
1255.27	313
1253.41	300
1251.56	297.5
1249.7	287
1247.83	291
1245.97	294.5
1244.11	297.5
1242.25	272.5
1240.39	291
1238.52	278.5
1236.66	278.5
1234.8	292
1232.93	282
1231.07	284
1229.2	270
1227.34	259.5
1225.47	279
1223.6	258
1221.74	268
1219.87	271
1218	258.5
1216.13	268
1214.26	262
1212.39	264.5
1210.53	263.5
1208.65	268
1206.78	264.5
1204.91	257.5
1203.04	263
1201.17	274
1199.3	251
1197.42	253
1195.55	252
1193.68	266
1191.8	242.5
1189.93	252.5
1188.05	253.5
1186.17	244.5
1184.3	247.5
1182.42	254.5
1180.54	248
1178.67	251.5
1176.79	231
1174.91	246
1173.03	235
1171.15	252.5
1169.27	246.5
1167.39	252.5
1165.51	248
1163.63	234
1161.75	237
1159.86	245
1157.98	239.5
1156.1	231
1154.21	224
1152.33	232.5
1150.44	239
1148.56	233.5
1146.67	242
1144.79	240
1142.9	232
1141.01	242
1139.12	241
1137.24	235
1135.35	227
1133.46	241.5
1131.57	245
1129.68	256
1127.79	236.5
1125.9	246
1124.01	244
1122.12	231
1120.22	242
1118.33	237
1116.44	260.5
1114.54	236.5
1112.65	246
1110.75	228.5
1108.86	248
1106.96	241
1105.07	246
1103.17	241.5
1101.27	243
1099.38	246
1097.48	232.5
1095.58	251
1093.68	241
1091.78	254
1089.88	248.5
1087.98	255
1086.08	251
1084.18	244.5
1082.28	252.5
1080.38	248.5
1078.47	255.5
1076.57	246.5
1074.67	248.5
1072.76	246.5
1070.86	244.5
1068.95	227
1067.05	250.5
1065.14	255
1063.24	241
1061.33	231
1059.42	233
1057.51	227
1055.6	219
1053.7	221
1051.79	212.5
1049.88	222.5
1047.97	218
1046.06	212.5
1044.14	222
1042.23	223.5
1040.32	224
1038.41	222.5
1036.5	220.5
1034.58	218
1032.67	223
1030.75	221.5
1028.84	229.5
1026.92	224
1025.01	233.5
1023.09	217
1021.17	227
1019.26	232
1017.34	220.5
1015.42	223
1013.5	231.5
1011.58	233
1009.66	239
1007.74	230.5
1005.82	245
1003.9	232.5
1001.98	239.5
1000.06	245.5
998.134	246
996.212	261
994.288	257
992.364	277
990.44	294.5
988.515	305.5
986.589	298.5
984.663	331.5
982.737	321
980.81	327.5
978.883	336
976.955	343
975.027	348
973.098	358.5
971.169	350.5
969.239	345
967.308	343
965.378	352.5
963.447	352.5
961.516	348.5
959.583	359.5
957.65	364.5
955.718	371.5
953.784	370
951.85	394.5
949.916	383
947.981	386
946.045	402
944.109	393
942.173	418.5
940.236	412
938.298	389.5
936.36	379
934.422	375
932.484	334.5
930.544	296
928.604	281.5
926.664	248
924.724	236
922.782	237
920.84	231.5
918.898	234.5
916.955	227.5
915.012	230
913.068	230
911.124	227.5
909.18	233
907.235	210.5
905.289	228.5
903.343	213
901.397	219.5
899.45	220
897.502	222.5
895.554	213
893.605	222
891.657	219.5
889.707	233
887.758	230.5
885.807	223.5
883.856	226
881.905	209
879.953	224.5
878.001	235.5
876.048	236
874.094	218
872.14	213
870.186	231
868.232	228
866.276	227
864.321	213.5
862.365	246.5
860.408	216
858.451	229
856.493	215.5
854.535	214.5
852.576	216
850.617	210.5
848.658	215
846.698	226
844.737	210.5
842.776	202.5
840.814	218
838.852	195.5
836.89	213
834.927	219.5
832.963	202.5
830.999	212.5
829.035	196.5
827.07	187
825.105	191
823.139	191
821.172	187.5
819.206	194.5
817.238	193
815.27	191.5
813.301	196
811.333	193.5
809.363	186.5
807.394	195
805.424	182
803.453	175
801.482	184.5
799.509	178
797.538	174.5
795.565	175
793.592	176.5
791.618	169.5
789.643	166.5
787.669	174
785.693	169.5
783.718	176
781.742	173
779.765	165
777.788	164
775.811	155
773.832	165
771.853	169
769.875	169
767.895	173.5
765.915	160
763.934	176.5
761.953	161
759.972	157
757.99	158
756.007	170
754.024	164.5
752.041	167
750.056	161
748.072	173.5
746.087	174
744.102	170.5
742.116	171.5
740.13	183
738.143	168
736.155	163
734.167	154
732.179	161
730.19	162.5
728.2	152.5
726.21	165
724.22	164
722.229	173.5
720.237	160
718.246	157.5
716.253	168.5
714.26	165
712.267	162.5
710.273	160.5
708.279	165
706.284	168
704.289	166
702.293	169.5
700.296	163.5
698.3	158
696.303	175.5
694.305	175.5
692.307	166
690.307	168.5
688.308	168.5
686.309	172
684.308	182
682.308	175.5
680.306	177
678.304	183
676.302	184.5
674.3	171
672.296	183
670.293	185
668.289	169
666.284	182
664.278	185.5
662.273	189.5
660.266	182
658.26	175.5
656.252	190
654.244	195
652.237	187
650.227	176.5
648.218	184
646.209	188
644.198	177.5
642.188	182.5
640.177	195
638.165	182
636.153	180
634.14	191.5
632.128	179.5
630.113	186
628.099	189.5
626.085	188.5
624.07	204
622.054	195
620.038	194
618.021	203
616.004	198
613.986	187
611.968	183.5
609.949	196.5
607.93	185
605.911	174
603.891	192
601.87	178
599.848	173
597.827	183
595.805	185
593.782	172.5
591.759	168
589.735	187.5
587.711	178
585.687	189
583.661	184
581.636	171.5
579.609	183
577.583	179
575.555	181.5
573.527	193
571.5	195
569.471	198.5
567.441	207.5
565.412	207
563.382	204
561.351	217
559.32	211.5
557.289	224.5
555.257	226.5
553.223	229
551.19	250.5
549.157	247
547.122	267.5
545.088	277
543.053	318.5
541.017	340.5
538.981	396.5
536.943	468
534.907	580
532.869	807
530.831	1194.5
528.792	1806
526.752	2883
524.713	4257.5
522.673	5434
520.632	5420.5
518.591	4440.5
516.549	3096
514.507	2049
512.464	1305
510.42	834.5
508.377	618
506.332	451
504.288	403
502.242	349.5
500.196	311
498.15	304.5
496.104	271.5
494.056	270.5
492.008	262.5
489.96	256.5
487.911	256.5
485.862	244
483.812	234
481.761	248
479.71	224
477.659	217
475.607	217
473.555	226.5
471.502	214
469.448	211
467.395	213.5
465.34	224
463.285	212.5
461.23	211
459.174	208.5
457.118	206
455.061	214
453.003	220.5
450.945	218.5
448.887	224
446.828	208.5
444.768	234
442.708	224
440.647	236
438.587	248.5
436.525	243.5
434.463	240.5
432.4	244
430.337	239
428.274	247.5
426.21	248
424.145	234.5
422.079	244.5
420.014	248.5
417.948	229
415.882	241.5
413.814	236
411.746	239.5
409.679	246.5
407.609	240
405.54	251
403.47	241.5
401.401	236.5
399.329	261.5
397.258	243
395.187	242.5
393.114	238
391.041	250
388.968	256
386.895	250
384.82	244
382.745	255.5
380.67	249
378.594	252.5
376.517	258.5
374.44	255.5
372.363	253.5
370.286	254
368.207	267
366.128	255.5
364.049	267
361.969	264
359.888	258.5
357.807	272
355.725	279
353.643	270
351.561	280
349.477	287
347.394	282
345.31	291.5
343.226	284.5
341.141	302
339.055	297.5
336.968	302.5
334.882	290.5
332.795	309
330.707	313
328.618	316.5
326.53	317.5
324.44	321.5
322.351	354
320.26	359.5
318.17	369.5
316.078	385.5
313.987	404
311.895	424.5
309.802	431
307.708	458
305.614	478
303.52	486
301.425	465
299.329	436
297.233	434.5
295.137	430
293.039	381.5
290.942	376.5
288.844	346
286.745	337
284.647	345.5
282.546	328.5
280.446	337.5
278.346	333
276.245	312
274.143	325
272.041	316
269.939	314
267.835	311.5
265.731	312
263.627	318
261.522	310.5
259.417	309
257.311	317.5
255.204	308.5
253.098	317.5
250.99	323
248.882	322
246.774	323.5
244.664	312
242.555	328.5
240.445	321
238.334	325.5
236.223	320.5
234.112	313.5
232	322
229.888	321.5
227.775	325.5
225.661	304
223.546	320
221.431	322
219.316	305.5
217.201	319
215.084	308.5
212.967	311
210.85	316.5
208.732	305.5
206.614	319
204.495	311
202.375	311
200.256	316
198.135	326
196.014	323
193.893	313
191.771	317.5
189.648	312
187.525	327.5
185.401	331.5
183.277	333
181.152	331
179.027	345.5
176.901	348.5
174.775	345.5
172.648	344
170.521	340
168.393	355
166.265	354
164.136	352.5
162.007	373.5
159.876	378.5
157.746	383
155.615	386.5
153.483	392
151.351	407.5
149.219	420
147.086	432.5
144.952	435.5
142.818	448
140.684	449.5
138.548	482.5
136.413	465
134.276	498
132.139	493
130.002	517.5
127.864	552.5
125.725	547
123.587	560.5
121.447	576.5
119.307	613.5
117.166	608
115.026	633
112.885	641
110.743	665
108.6	673.5
106.456	674
104.313	675.5
102.169	681
100.023	652
97.8789	610.5
95.7328	543
93.5869	499
91.4392	423.5
89.2919	346.5
87.1447	289.5
84.9959	230.5
