3528.51	293.5
3527.23	301
3525.95	316
3524.67	311
3523.39	319
3522.1	325
3520.82	329.5
3519.54	330
3518.26	329
3516.97	335.5
3515.69	324.5
3514.4	336
3513.12	320
3511.84	323.5
3510.55	341
3509.26	359
3507.98	349.5
3506.69	334.5
3505.41	353.5
3504.12	344.5
3502.83	364
3501.54	360
3500.26	364.5
3498.97	381.5
3497.68	366.5
3496.39	378.5
3495.1	391.5
3493.81	382.5
3492.52	410.5
3491.23	396
3489.94	402.5
3488.65	416
3487.36	419
3486.07	423.5
3484.78	427
3483.49	431
3482.19	450
3480.9	468.5
3479.61	466
3478.31	475
3477.02	452
3475.73	478.5
3474.43	453
3473.14	494.5
3471.84	483.5
3470.54	501.5
3469.25	485
3467.95	487.5
3466.66	502
3465.36	500
3464.06	501.5
3462.76	516
3461.46	513.5
3460.17	502.5
3458.87	506.5
3457.57	523
3456.27	539.5
3454.97	524.5
3453.67	530
3452.37	551.5
3451.07	545
3449.77	549
3448.47	549
3447.16	542.5
3445.86	578
3444.56	602
3443.26	581
3441.95	602
3440.65	594.5
3439.35	620.5
3438.04	637
3436.74	653
3435.43	658.5
3434.13	659
3432.82	683.5
3431.52	682
3430.21	699.5
3428.9	695.5
3427.6	721.5
3426.29	747
3424.98	727.5
3423.67	759
3422.36	745.5
3421.06	771.5
3419.75	759.5
3418.44	790.5
3417.13	790.5
3415.82	804.5
3414.51	797.5
3413.2	785.5
3411.88	814.5
3410.57	823.5
3409.26	860
3407.95	840.5
3406.64	867
3405.32	845
3404.01	882
3402.7	876
3401.38	889
3400.07	882
3398.75	912.5
3397.44	934
3396.12	915.5
3394.81	910
3393.49	927
3392.18	928.5
3390.86	939
3389.54	949.5
3388.23	965.5
3386.91	964
3385.59	983
3384.27	983
3382.95	997
3381.63	1007
3380.31	1001.5
3378.99	1040.5
3377.67	1031.5
3376.35	1042.5
3375.03	1064
3373.71	1064
3372.39	1055
3371.07	1066.5
3369.75	1093.5
3368.42	1100
3367.1	1090
3365.78	1116.5
3364.45	1107
3363.13	1142.5
3361.81	1141.5
3360.48	1152.5
3359.16	1145
3357.83	1184.5
3356.51	1180.5
3355.18	1158.5
3353.85	1172
3352.53	1200.5
3351.2	1184
3349.87	1186.5
3348.54	1196.5
3347.22	1229
3345.89	1199
3344.56	1197
3343.23	1214.5
3341.9	1209.5
3340.57	1210
3339.24	1213.5
3337.91	1217
3336.58	1210.5
3335.25	1234
3333.92	1222.5
3332.58	1247
3331.25	1229.5
3329.92	1250
3328.59	1270.5
3327.25	1278
3325.92	1275
3324.58	1275
3323.25	1280.5
3321.92	1274.5
3320.58	1315
3319.25	1278
3317.91	1311
3316.57	1314.5
3315.24	1304
3313.9	1356
3312.56	1356
3311.23	1324
3309.89	1380
3308.55	1365
3307.21	1395.5
3305.87	1407
3304.53	1393.5
3303.19	1405
3301.85	1399
3300.51	1374
3299.17	1413.5
3297.83	1413.5
3296.49	1413.5
3295.15	1414
3293.81	1449
3292.46	1450
3291.12	1430.5
3289.78	1439
3288.43	1422.5
3287.09	1475.5
3285.75	1441.5
3284.4	1462.5
3283.06	1468
3281.71	1491
3280.37	1497.5
3279.02	1496.5
3277.67	1519.5
3276.33	1488.5
3274.98	1535.5
3273.63	1549.5
3272.28	1517.5
3270.94	1551
3269.59	1544.5
3268.24	1570
3266.89	1572.5
3265.54	1619
3264.19	1632
3262.84	1651
3261.49	1675
3260.14	1699.5
3258.79	1713
3257.44	1760.5
3256.08	1792
3254.73	1818
3253.38	1854
3252.03	1902.5
3250.67	1927.5
3249.32	1991.5
3247.96	2023.5
3246.61	2099
3245.26	2175
3243.9	2191.5
3242.54	2243
3241.19	2318
3239.83	2343
3238.48	2391
3237.12	2483
3235.76	2550.5
3234.41	2601
3233.05	2659
3231.69	2746.5
3230.33	2744.5
3228.97	2843
3227.61	2881
3226.25	2955.5
3224.89	3026
3223.53	3060
3222.17	3130
3220.81	3161
3219.45	3170.5
3218.09	3205
3216.72	3236
3215.36	3252.5
3214	3281.5
3212.63	3374
3211.27	3356
3209.91	3400
3208.54	3413.5
3207.18	3398
3205.81	3475
3204.45	3451
3203.08	3520.5
3201.71	3504
3200.35	3486
3198.98	3530
3197.61	3543.5
3196.25	3589
3194.88	3615
3193.51	3615
3192.14	3629.5
3190.77	3612
3189.4	3627
3188.03	3686
3186.66	3716
3185.29	3736.5
3183.92	3720
3182.55	3749.5
3181.18	3797.5
3179.81	3792.5
3178.44	3820.5
3177.06	3850
3175.69	3884.5
3174.32	3948.5
3172.94	3959.5
3171.57	3967.5
3170.2	4017
3168.82	4011
3167.45	3996.5
3166.07	4049
3164.69	4073.5
3163.32	4147
3161.94	4202
3160.56	4217
3159.19	4211
3157.81	4233.5
3156.43	4310
3155.05	4311.5
3153.67	4366.5
3152.3	4418
3150.92	4394
3149.54	4446
3148.16	4463
3146.78	4467.5
3145.4	4557
3144.01	4525
3142.63	4570.5
3141.25	4612
3139.87	4617
3138.49	4626.5
3137.1	4650
3135.72	4699
3134.34	4742.5
3132.95	4774.5
3131.57	4818
3130.18	4856
3128.8	4877.5
3127.41	4924
3126.03	4939.5
3124.64	4988.5
3123.25	5061
3121.87	5033
3120.48	5083
3119.09	5074.5
3117.7	5151
3116.32	5206
3114.93	5195
3113.54	5246.5
3112.15	5207.5
3110.76	5275
3109.37	5285.5
3107.98	5265
3106.59	5329
3105.2	5361.5
3103.8	5343.5
3102.41	5346.5
3101.02	5433
3099.63	5471
3098.23	5481.5
3096.84	5439
3095.45	5513.5
3094.05	5537.5
3092.66	5550
3091.26	5560.5
3089.87	5586.5
3088.47	5567.5
3087.08	5639
3085.68	5650.5
3084.28	5636.5
3082.89	5662
3081.49	5674.5
3080.09	5667.5
3078.69	5691
3077.3	5684.5
3075.9	5708.5
3074.5	5718.5
3073.1	5782
3071.7	5735
3070.3	5778
3068.9	5739.5
3067.5	5803
3066.09	5766
3064.69	5840
3063.29	5808.5
3061.89	5907
3060.48	5860
3059.08	5893
3057.68	5901.5
3056.27	5896.5
3054.87	5926.5
3053.46	5925
3052.06	5942.5
3050.65	6006.5
3049.25	5994.5
3047.84	6050
3046.44	5999
3045.03	6046.5
3043.62	6057
3042.21	6134
3040.81	6124.5
3039.4	6129
3037.99	6145.5
3036.58	6163.5
3035.17	6178.5
3033.76	6209
3032.35	6203
3030.94	6273.5
3029.53	6224.5
3028.12	6219
3026.71	6219
3025.29	6238.5
3023.88	6269
3022.47	6249.5
3021.06	6223
3019.64	6241.5
3018.23	6301
3016.82	6298.5
3015.4	6322.5
3013.99	6265
3012.57	6285.5
3011.15	6308
3009.74	6322
3008.32	6387.5
3006.91	6349.5
3005.49	6388
3004.07	6397
3002.65	6402.5
3001.24	6427
2999.82	6426
2998.4	6472
2996.98	6491
2995.56	6474.5
2994.14	6546
2992.72	6626
2991.3	6628
2989.88	6658
2988.46	6693.5
2987.03	6748.5
2985.61	6746.5
2984.19	6797
2982.77	6872.5
2981.34	6937.5
2979.92	6921
2978.49	6990
2977.07	6976.5
2975.65	7038
2974.22	7031
2972.79	7115
2971.37	7092
2969.94	7059.5
2968.52	7142
2967.09	7174
2965.66	7192
2964.23	7183
2962.81	7179.5
2961.38	7207.5
2959.95	7208
2958.52	7217
2957.09	7242
2955.66	7263.5
2954.23	7282.5
2952.8	7289.5
2951.37	7268
2949.94	7287
2948.5	7270
2947.07	7282
2945.64	7292.5
2944.21	7328
2942.77	7238.5
2941.34	7351.5
2939.91	7334.5
2938.47	7347.5
2937.04	7370.5
2935.6	7399.5
2934.17	7488
2932.73	7477.5
2931.29	7525
2929.86	7505.5
2928.42	7543
2926.98	7551
2925.55	7536
2924.11	7554.5
2922.67	7598
2921.23	7534
2919.79	7534
2918.35	7502
2916.91	7558.5
2915.47	7548
2914.03	7616
2912.59	7611
2911.15	7632
2909.71	7608.5
2908.26	7682.5
2906.82	7650.5
2905.38	7707
2903.94	7708.5
2902.49	7745
2901.05	7713
2899.6	7811.5
2898.16	7787.5
2896.71	7758.5
2895.27	7783.5
2893.82	7732
2892.38	7804
2890.93	7783.5
2889.48	7804.5
2888.03	7751.5
2886.59	7816
2885.14	7801.5
2883.69	7802.5
2882.24	7841.5
2880.79	7842
2879.34	7884.5
2877.89	7870
2876.44	7818.5
2874.99	7965
2873.54	7919
2872.09	7917
2870.64	7933
2869.18	7896
2867.73	7888.5
2866.28	7947.5
2864.83	7911
2863.37	7942
2861.92	7937.5
2860.46	7974.5
2859.01	7901
2857.55	7978
2856.1	7948.5
2854.64	7956.5
2853.19	8008.5
2851.73	8003.5
2850.27	7947.5
2848.81	7981
2847.36	7925
2845.9	7936.5
2844.44	8017
2842.98	7977
2841.52	7966
2840.06	7985
2838.6	7982
2837.14	7996.5
2835.68	7970.5
2834.22	7963
2832.76	7982.5
2831.3	7961.5
2829.83	7943.5
2828.37	8039
2826.91	7942.5
2825.44	7957.5
2823.98	7924.5
2822.52	7963.5
2821.05	7983.5
2819.59	7966.5
2818.12	7928
2816.66	7919
2815.19	7929.5
2813.72	7935.5
2812.26	7910
2810.79	7896
2809.32	7877
2807.85	7939
2806.38	7939
2804.92	7911
2803.45	7934.5
2801.98	7852
2800.51	7888.5
2799.04	7857
2797.57	7805.5
2796.1	7825.5
2794.62	7834.5
2793.15	7769
2791.68	7768.5
2790.21	7778.5
2788.73	7781.5
2787.26	7870
2785.79	7878
2784.31	7826.5
2782.84	7829
2781.36	7802
2779.89	7846.5
2778.41	7847.5
2776.94	7834.5
2775.46	7866.5
2773.99	7917
2772.51	7898.5
2771.03	7885.5
2769.55	7911
2768.07	7948
2766.6	8039
2765.12	7967
2763.64	7955
2762.16	7976.5
2760.68	7960.5
2759.2	7917.5
2757.72	7885
2756.24	7935
2754.75	7892.5
2753.27	7985.5
2751.79	7959
2750.31	7949
2748.82	7913
2747.34	7983
2745.86	7930.5
2744.37	7888
2742.89	7903
2741.4	7885.5
2739.92	7945
2738.43	7889
2736.94	7949.5
2735.46	7926.5
2733.97	7876
2732.48	7881.5
2731	7930
2729.51	7908
2728.02	7874.5
2726.53	7863.5
2725.04	7841.5
2723.55	7845
2722.06	7773.5
2720.57	7838.5
2719.08	7803.5
2717.59	7826.5
2716.1	7839.5
2714.61	7788
2713.11	7877
2711.62	7836.5
2710.13	7882
2708.64	7827.5
2707.14	7854
2705.65	7830
2704.15	7787
2702.66	7808
2701.16	7780
2699.67	7767.5
2698.17	7693
2696.67	7797
2695.18	7694
2693.68	7772
2692.18	7735
2690.69	7758.5
2689.19	7665.5
2687.69	7674
2686.19	7671.5
2684.69	7569
2683.19	7611.5
2681.69	7646
2680.19	7593
2678.69	7570.5
2677.19	7625
2675.68	7553
2674.18	7573.5
2672.68	7577.5
2671.18	7537
2669.67	7522.5
2668.17	7584.5
2666.66	7499
2665.16	7577
2663.66	7544
2662.15	7496.5
2660.64	7438
2659.14	7478.5
2657.63	7495.5
2656.13	7464.5
2654.62	7458
2653.11	7395.5
2651.6	7395
2650.09	7397.5
2648.58	7430
2647.08	7402.5
2645.57	7375
2644.06	7378.5
2642.55	7353
2641.04	7385.5
2639.52	7364.5
2638.01	7294
2636.5	7272
2634.99	7234.5
2633.48	7186.5
2631.96	7218.5
2630.45	7221
2628.94	7138.5
2627.42	7249
2625.91	7196
2624.39	7150.5
2622.88	7131
2621.36	7047.5
2619.85	7140
2618.33	7163.5
2616.81	7099.5
2615.3	7125.5
2613.78	7089
2612.26	7041
2610.74	7089
2609.22	7057
2607.7	7068.5
2606.18	7021
2604.66	6984.5
2603.14	6969
2601.62	6944
2600.1	6868
2598.58	6865.5
2597.06	6829
2595.54	6802.5
2594.01	6784.5
2592.49	6769.5
2590.97	6755.5
2589.44	6760
2587.92	6772
2586.39	6811.5
2584.87	6739.5
2583.34	6785.5
2581.82	6753.5
2580.29	6690
2578.76	6688.5
2577.24	6639
2575.71	6693
2574.18	6669.5
2572.65	6716
2571.13	6721
2569.6	6751.5
2568.07	6729
2566.54	6722.5
2565.01	6721.5
2563.48	6688.5
2561.95	6746.5
2560.42	6657
2558.88	6669.5
2557.35	6581.5
2555.82	6625.5
2554.29	6624
2552.75	6591
2551.22	6569.5
2549.69	6529
2548.15	6512
2546.62	6484.5
2545.08	6500.5
2543.55	6440
2542.01	6455
2540.47	6417.5
2538.94	6434.5
2537.4	6335
2535.86	6370
2534.33	6350.5
2532.79	6306
2531.25	6328.5
2529.71	6260.5
2528.17	6292.5
2526.63	6248.5
2525.09	6287.5
2523.55	6204.5
2522.01	6192.5
2520.47	6215
2518.92	6197
2517.38	6198
2515.84	6257.5
2514.3	6130
2512.75	6145
2511.21	6100
2509.67	6127
2508.12	6065.5
2506.58	6073
2505.03	6020.5
2503.49	6030
2501.94	6045
2500.39	6038
2498.85	5987.5
2497.3	5976
2495.75	5948.5
2494.2	5967
2492.65	5930.5
2491.11	5880.5
2489.56	5782.5
2488.01	5803
2486.46	5836.5
2484.91	5810
2483.36	5807.5
2481.8	5827
2480.25	5762.5
2478.7	5765.5
2477.15	5758.5
2475.6	5754
2474.04	5699
2472.49	5719.5
2470.93	5655.5
2469.38	5622
2467.83	5562.5
2466.27	5597.5
2464.71	5527
2463.16	5533.5
2461.6	5504
2460.05	5469.5
2458.49	5462
2456.93	5423
2455.37	5408
2453.81	5384
2452.26	5375
2450.7	5354.5
2449.14	5301
2447.58	5273
2446.02	5214
2444.46	5209.5
2442.9	5251.5
2441.33	5181.5
2439.77	5207
2438.21	5177
2436.65	5183
2435.08	5224
2433.52	5133.5
2431.96	5169.5
2430.39	5139.5
2428.83	5151.5
2427.26	5125.5
2425.7	5079
2424.13	5123
2422.56	5055.5
2421	5064
2419.43	5069
2417.86	5003.5
2416.3	4972
2414.73	5028.5
2413.16	5024.5
2411.59	4961
2410.02	4986
2408.45	4980
2406.88	4951.5
2405.31	4986
2403.74	5009
2402.17	4927.5
2400.6	4955.5
2399.02	4898.5
2397.45	4904.5
2395.88	4898
2394.3	4890.5
2392.73	4903.5
2391.16	4852
2389.58	4866
2388.01	4820
2386.43	4850.5
2384.86	4846
2383.28	4813
2381.7	4832.5
2380.13	4842
2378.55	4780
2376.97	4847.5
2375.39	4840.5
2373.81	4821
2372.23	4754.5
2370.65	4749
2369.07	4792.5
2367.49	4793.5
2365.91	4683.5
2364.33	4729
2362.75	4675.5
2361.17	4706.5
2359.59	4691.5
2358.01	4667.5
2356.42	4674
2354.84	4621
2353.25	4683
2351.67	4625.5
2350.09	4680
2348.5	4619
2346.92	4611.5
2345.33	4611.5
2343.74	4627
2342.16	4663
2340.57	4610.5
2338.98	4614
2337.39	4554
2335.81	4557
2334.22	4580.5
2332.63	4578.5
2331.04	4549
2329.45	4474.5
2327.86	4515.5
2326.27	4479
2324.68	4502.5
2323.09	4503
2321.49	4443.5
2319.9	4445.5
2318.31	4396
2316.72	4427.5
2315.12	4351.5
2313.53	4345
2311.93	4306.5
2310.34	4297
2308.74	4306.5
2307.15	4315.5
2305.55	4298.5
2303.96	4305.5
2302.36	4221
2300.76	4248.5
2299.17	4222
2297.57	4204
2295.97	4161.5
2294.37	4165
2292.77	4166
2291.17	4143
2289.57	4131
2287.97	4134
2286.37	4118
2284.77	4109
2283.17	4087
2281.57	4095
2279.96	4128
2278.36	4057.5
2276.76	4092
2275.15	4053
2273.55	4063.5
2271.95	4047.5
2270.34	4000.5
2268.74	4018.5
2267.13	3946
2265.52	3991.5
2263.92	3966.5
2262.31	3946
2260.7	3896.5
2259.1	3942.5
2257.49	3872.5
2255.88	3867.5
2254.27	3875.5
2252.66	3878.5
2251.05	3895.5
2249.44	3849
2247.83	3847
2246.22	3865.5
2244.61	3817
2243	3858.5
2241.39	3804
2239.77	3831.5
2238.16	3848.5
2236.55	3803
2234.93	3762
2233.32	3752.5
2231.7	3737
2230.09	3694
2228.47	3700.5
2226.86	3695.5
2225.24	3696
2223.63	3686.5
2222.01	3703.5
2220.39	3681
2218.77	3640.5
2217.16	3608
2215.54	3573.5
2213.92	3622.5
2212.3	3596
2210.68	3535.5
2209.06	3534
2207.44	3477
2205.82	3502
2204.19	3494.5
2202.57	3491
2200.95	3485.5
2199.33	3468
2197.7	3467.5
2196.08	3411.5
2194.46	3475.5
2192.83	3442
2191.21	3433.5
2189.58	3407
2187.96	3439.5
2186.33	3398
2184.7	3399.5
2183.08	3403.5
2181.45	3313
2179.82	3342.5
2178.19	3317.5
2176.57	3322.5
2174.94	3297.5
2173.31	3284
2171.68	3287
2170.05	3279.5
2168.42	3282.5
2166.79	3245.5
2165.16	3252
2163.52	3261.5
2161.89	3230
2160.26	3210
2158.63	3191.5
2156.99	3170.5
2155.36	3163.5
2153.73	3162
2152.09	3163.5
2150.46	3135
2148.82	3155.5
2147.18	3074
2145.55	3107.5
2143.91	3072.5
2142.27	3059.5
2140.64	3041
2139	3019
2137.36	3036.5
2135.72	3025.5
2134.08	3023
2132.44	2975.5
2130.8	2977
2129.16	2971.5
2127.52	2953
2125.88	2922
2124.24	2881.5
2122.6	2920.5
2120.95	2866
2119.31	2867
2117.67	2866.5
2116.02	2841.5
2114.38	2867
2112.74	2816
2111.09	2832
2109.45	2820.5
2107.8	2789
2106.15	2788.5
2104.51	2736
2102.86	2746.5
2101.21	2753.5
2099.56	2731.5
2097.92	2761.5
2096.27	2729.5
2094.62	2682
2092.97	2733
2091.32	2740
2089.67	2715.5
2088.02	2693.5
2086.37	2696
2084.72	2700.5
2083.06	2680.5
2081.41	2640.5
2079.76	2697
2078.1	2675.5
2076.45	2661
2074.8	2664.5
2073.14	2638.5
2071.49	2669
2069.83	2648
2068.18	2665
2066.52	2614
2064.86	2616.5
2063.21	2632.5
2061.55	2599
2059.89	2599.5
2058.23	2589.5
2056.57	2591.5
2054.92	2614
2053.26	2589.5
2051.6	2621
2049.94	2568
2048.27	2536.5
2046.61	2571.5
2044.95	2494
2043.29	2511
2041.63	2511
2039.97	2505.5
2038.3	2463
2036.64	2479
2034.97	2452
2033.31	2409
2031.64	2430
2029.98	2434
2028.31	2367
2026.65	2358.5
2024.98	2374.5
2023.31	2343.5
2021.65	2368.5
2019.98	2319.5
2018.31	2329
2016.64	2307
2014.97	2281
2013.3	2289
2011.63	2293.5
2009.96	2231.5
2008.29	2265.5
2006.62	2244
2004.95	2252.5
2003.28	2233
2001.6	2252.5
1999.93	2235
1998.26	2242.5
1996.58	2201
1994.91	2207
1993.24	2195
1991.56	2190
1989.89	2188.5
1988.21	2178
1986.53	2192
1984.86	2187.5
1983.18	2154.5
1981.5	2138.5
1979.82	2152
1978.15	2138
1976.47	2112
1974.79	2094.5
1973.11	2127
1971.43	2117
1969.75	2110
1968.07	2059.5
1966.38	2074
1964.7	2043
1963.02	2055
1961.34	2044
1959.66	2018
1957.97	2012
1956.29	2017
1954.6	2019
1952.92	2004
1951.23	1995.5
1949.55	2001
1947.86	1995.5
1946.18	1975
1944.49	1943.5
1942.8	1962
1941.11	1966.5
1939.43	1945
1937.74	1939
1936.05	1920
1934.36	1917
1932.67	1887.5
1930.98	1910.5
1929.29	1912.5
1927.6	1874.5
1925.91	1876
1924.21	1842.5
1922.52	1814
1920.83	1807.5
1919.14	1835.5
1917.44	1829.5
1915.75	1852.5
1914.05	1842
1912.36	1802
1910.66	1795.5
1908.97	1808
1907.27	1768
1905.58	1803
1903.88	1759.5
1902.18	1734
1900.48	1755.5
1898.79	1743
1897.09	1693
1895.39	1724.5
1893.69	1703.5
1891.99	1706.5
1890.29	1707
1888.59	1680.5
1886.89	1674.5
1885.18	1656.5
1883.48	1665.5
1881.78	1662.5
1880.08	1667
1878.37	1630.5
1876.67	1606.5
1874.96	1599.5
1873.26	1579
1871.55	1600
1869.85	1615.5
1868.14	1577
1866.44	1558
1864.73	1575.5
1863.02	1566
1861.32	1568
1859.61	1560
1857.9	1532.5
1856.19	1536
1854.48	1494.5
1852.77	1517
1851.06	1533.5
1849.35	1516.5
1847.64	1504
1845.93	1511
1844.21	1487.5
1842.5	1508
1840.79	1488
1839.08	1494.5
1837.36	1494.5
1835.65	1477.5
1833.93	1480
1832.22	1488
1830.5	1432.5
1828.79	1421
1827.07	1433.5
1825.36	1420
1823.64	1433.5
1821.92	1435
1820.2	1426.5
1818.48	1392.5
1816.77	1380.5
1815.05	1374.5
1813.33	1380
1811.61	1386.5
1809.89	1351.5
1808.16	1352.5
1806.44	1343.5
1804.72	1342
1803	1364.5
1801.28	1346
1799.55	1342
1797.83	1340
1796.11	1319
1794.38	1345.5
1792.66	1307
1790.93	1307.5
1789.21	1284.5
1787.48	1286
1785.75	1277.5
1784.03	1264.5
1782.3	1276
1780.57	1247
1778.84	1280
1777.11	1252
1775.38	1247.5
1773.66	1252
1771.93	1259
1770.19	1223.5
1768.46	1218.5
1766.73	1267
1765	1250.5
1763.27	1208.5
1761.54	1214
1759.8	1207.5
1758.07	1223.5
1756.34	1212
1754.6	1215.5
1752.87	1195.5
1751.13	1192.5
1749.4	1194
1747.66	1191
1745.92	1200
1744.19	1185.5
1742.45	1192.5
1740.71	1178
1738.97	1187
1737.23	1164.5
1735.49	1188
1733.75	1177
1732.01	1178.5
1730.27	1167
1728.53	1139
1726.79	1148
1725.05	1140
1723.31	1146
1721.57	1100.5
1719.82	1133
1718.08	1107
1716.34	1095.5
1714.59	1094
1712.85	1095
1711.1	1076
1709.36	1087
1707.61	1081
1705.86	1067
1704.12	1060
1702.37	1072.5
1700.62	1055.5
1698.87	1053.5
1697.12	1044.5
1695.37	1034.5
1693.62	1035
1691.87	1027
1690.12	1024.5
1688.37	1026.5
1686.62	998.5
1684.87	996
1683.12	1013.5
1681.36	1003.5
1679.61	1006
1677.86	996
1676.1	996.5
1674.35	1005
1672.59	985.5
1670.84	959.5
1669.08	986.5
1667.33	981
1665.57	974
1663.81	984
1662.06	966.5
1660.3	971.5
1658.54	960
1656.78	966.5
1655.02	959.5
1653.26	944
1651.5	954
1649.74	944
1647.98	942
1646.22	952.5
1644.46	931.5
1642.7	945.5
1640.93	930
1639.17	914
1637.41	889.5
1635.64	926.5
1633.88	905
1632.11	916.5
1630.35	901.5
1628.58	895.5
1626.81	899
1625.05	897
1623.28	872.5
1621.51	882
1619.75	858
1617.98	886
1616.21	860
1614.44	872.5
1612.67	881
1610.9	853
1609.13	853.5
1607.36	866
1605.58	835
1603.81	858.5
1602.04	865
1600.27	868
1598.49	850
1596.72	840
1594.95	832.5
1593.17	846.5
1591.4	838.5
1589.62	827.5
1587.84	844
1586.07	824.5
1584.29	818.5
1582.51	809
1580.74	826
1578.96	832
1577.18	802.5
1575.4	799
1573.62	803.5
1571.84	800.5
1570.06	805
1568.28	797.5
1566.5	775
1564.72	783
1562.93	785.5
1561.15	771.5
1559.37	781
1557.58	782
1555.8	774.5
1554.02	768
1552.23	758.5
1550.45	751.5
1548.66	755
1546.87	745.5
1545.09	752
1543.3	754
1541.51	743.5
1539.72	709
1537.94	710.5
1536.15	734
1534.36	723
1532.57	714
1530.78	722.5
1528.99	709
1527.2	715
1525.4	701.5
1523.61	696
1521.82	694
1520.03	683.5
1518.23	682
1516.44	702
1514.65	691.5
1512.85	699
1511.06	700
1509.26	679.5
1507.46	675.5
1505.67	692
1503.87	667.5
1502.07	682.5
1500.28	677
1498.48	676
1496.68	661
1494.88	677
1493.08	672
1491.28	670.5
1489.48	672.5
1487.68	661
1485.88	664.5
1484.08	654
1482.27	661
1480.47	642
1478.67	658
1476.86	646.5
1475.06	643
1473.25	644
1471.45	659.5
1469.64	627.5
1467.84	628.5
1466.03	646
1464.23	621
1462.42	641
1460.61	629.5
1458.8	643.5
1456.99	627.5
1455.18	632
1453.37	637
1451.56	619
1449.75	631
1447.94	625.5
1446.13	617
1444.32	621
1442.51	616.5
1440.7	603
1438.88	594
1437.07	612.5
1435.26	593.5
1433.44	606.5
1431.63	597
1429.81	611
1427.99	596
1426.18	592
1424.36	588
1422.54	582
1420.73	590
1418.91	582
1417.09	587.5
1415.27	572.5
1413.45	580
1411.63	562.5
1409.81	576.5
1407.99	560
1406.17	577
1404.35	556
1402.53	567.5
1400.7	556.5
1398.88	539
1397.06	554.5
1395.23	556
1393.41	553
1391.58	536
1389.76	545
1387.93	533
1386.11	553
1384.28	550
1382.45	555
1380.62	552.5
1378.8	541
1376.97	529.5
1375.14	530
1373.31	541.5
1371.48	526
1369.65	511.5
1367.82	532
1365.99	529.5
1364.16	515
1362.32	510.5
1360.49	523.5
1358.66	517
1356.82	523.5
1354.99	507
1353.16	512
1351.32	505.5
1349.48	487
1347.65	518.5
1345.81	489
1343.98	496
1342.14	498.5
1340.3	488.5
1338.46	497
1336.62	487.5
1334.79	472
1332.95	489.5
1331.11	477.5
1329.27	478.5
1327.42	477.5
1325.58	478
1323.74	446
1321.9	475
1320.06	476.5
1318.21	471
1316.37	465
1314.53	445
1312.68	480.5
1310.84	470.5
1308.99	462.5
1307.15	470.5
1305.3	449
1303.45	447.5
1301.61	454.5
1299.76	457
1297.91	457
1296.06	438.5
1294.21	450.5
1292.36	450.5
1290.51	447.5
1288.66	441
1286.81	445.5
1284.96	438
1283.11	433
1281.26	423.5
1279.4	424.5
1277.55	438.5
1275.7	416
1273.84	428.5
1271.99	426
1270.13	429
1268.28	410.5
1266.42	419.5
1264.56	414.5
1262.71	402
1260.85	411.5
1258.99	411
1257.13	410.5
1255.27	417
1253.41	402.5
1251.56	408
1249.7	407
1247.83	391
1245.97	400.5
1244.11	400.5
1242.25	405.5
1240.39	408.5
1238.52	394.5
1236.66	384
1234.8	404
1232.93	391.5
1231.07	388
1229.2	402
1227.34	383
1225.47	393.5
1223.6	389
1221.74	381.5
1219.87	386.5
1218	388.5
1216.13	363
1214.26	374
1212.39	366
1210.53	367
1208.65	369
1206.78	382.5
1204.91	376.5
1203.04	378
1201.17	368.5
1199.3	359.5
1197.42	365
1195.55	362
1193.68	360.5
1191.8	359.5
1189.93	353.5
1188.05	355.5
1186.17	342
1184.3	344
1182.42	359
1180.54	353.5
1178.67	353.5
1176.79	349.5
1174.91	351.5
1173.03	346.5
1171.15	344.5
1169.27	343.5
1167.39	352.5
1165.51	347.5
1163.63	345
1161.75	339
1159.86	340
1157.98	354
1156.1	341.5
1154.21	334.5
1152.33	335
1150.44	341
1148.56	342
1146.67	331
1144.79	334
1142.9	350
1141.01	322
1139.12	346.5
1137.24	329
1135.35	333.5
1133.46	341.5
1131.57	325.5
1129.68	318
1127.79	329.5
1125.9	323
1124.01	317
1122.12	332
1120.22	325
1118.33	326
1116.44	315.5
1114.54	339
1112.65	319.5
1110.75	318.5
1108.86	314.5
1106.96	321.5
1105.07	319.5
1103.17	326.5
1101.27	323
1099.38	315
1097.48	311
1095.58	321.5
1093.68	301
1091.78	327.5
1089.88	312
1087.98	314.5
1086.08	316
1084.18	307
1082.28	302
1080.38	311.5
1078.47	291
1076.57	304
1074.67	297.5
1072.76	300
1070.86	311
1068.95	297
1067.05	295.5
1065.14	297
1063.24	294.5
1061.33	295
1059.42	292
1057.51	288
1055.6	291
1053.7	295.5
1051.79	292.5
1049.88	293.5
1047.97	294
1046.06	287.5
1044.14	282
1042.23	282.5
1040.32	275.5
1038.41	288.5
1036.5	297.5
1034.58	276
1032.67	277
1030.75	291.5
1028.84	282
1026.92	299
1025.01	294
1023.09	288.5
1021.17	290.5
1019.26	299
1017.34	297
1015.42	294
1013.5	298
1011.58	285.5
1009.66	293.5
1007.74	297
1005.82	305.5
1003.9	314
1001.98	320
1000.06	309
998.134	321.5
996.212	336.5
994.288	326
992.364	338
990.44	331
988.515	360
986.589	367
984.663	382.5
982.737	377
980.81	378
978.883	376
976.955	385
975.027	391
973.098	394.5
971.169	384
969.239	380.5
967.308	391
965.378	383
963.447	392.5
961.516	402.5
959.583	396
957.65	400
955.718	413.5
953.784	406.5
951.85	419.5
949.916	408.5
947.981	418.5
946.045	435
944.109	426
942.173	437
940.236	438
938.298	429.5
936.36	413
934.422	393.5
932.484	380
930.544	338.5
928.604	312
926.664	295.5
924.724	280
922.782	284.5
920.84	276.5
918.898	286
916.955	281.5
915.012	273.5
913.068	271.5
911.124	262
909.18	263
907.235	256.5
905.289	265
903.343	251.5
901.397	271
899.45	270.5
897.502	255
895.554	265
893.605	266.5
891.657	261.5
889.707	261.5
887.758	249.5
885.807	259
883.856	262.5
881.905	245.5
879.953	255
878.001	264.5
876.048	271
874.094	280.5
872.14	260.5
870.186	267
868.232	260
866.276	245
864.321	248
862.365	274
860.408	259
858.451	264
856.493	254
854.535	255.5
852.576	248.5
850.617	261
848.658	249
846.698	255
844.737	235
842.776	240
840.814	250
838.852	253
836.89	249.5
834.927	237.5
832.963	254.5
830.999	255
829.035	245.5
827.07	247.5
825.105	256.5
823.139	252.5
821.172	247.5
819.206	255
817.238	259.5
815.27	243
813.301	243
811.333	253
809.363	245.5
807.394	243.5
805.424	250.5
803.453	254
801.482	241.5
799.509	249
797.538	237
795.565	250.5
793.592	249.5
791.618	236
789.643	231
787.669	239
785.693	238
783.718	242
781.742	247
779.765	230.5
777.788	241
775.811	232
773.832	237
771.853	234.5
769.875	228.5
767.895	222.5
765.915	229.5
763.934	241
761.953	240
759.972	220.5
757.99	218
756.007	234.5
754.024	240.5
752.041	230.5
750.056	222
748.072	240
746.087	237
744.102	227.5
742.116	230.5
740.13	242
738.143	229
736.155	238.5
734.167	228
732.179	224
730.19	239.5
728.2	236
726.21	238.5
724.22	240
722.229	235.5
720.237	241
718.246	235
716.253	236
714.26	243.5
712.267	222.5
710.273	222.5
708.279	237
706.284	237
704.289	250
702.293	228
700.296	246
698.3	235.5
696.303	236.5
694.305	244
692.307	242
690.307	246.5
688.308	249
686.309	244.5
684.308	250
682.308	252
680.306	261
678.304	264.5
676.302	250.5
674.3	267
672.296	259
670.293	270.5
668.289	269
666.284	258
664.278	270
662.273	265
660.266	268.5
658.26	274.5
656.252	255
654.244	254.5
652.237	273.5
650.227	265
648.218	267
646.209	278
644.198	263.5
642.188	272
640.177	273.5
638.165	278
636.153	274.5
634.14	283.5
632.128	286.5
630.113	284.5
628.099	287
626.085	299.5
624.07	294
622.054	288
620.038	290
618.021	297
616.004	277
613.986	266.5
611.968	276
609.949	274
607.93	269
605.911	269
603.891	277.5
601.87	283
599.848	279.5
597.827	268.5
595.805	270
593.782	276
591.759	267.5
589.735	280
587.711	265
585.687	278.5
583.661	286.5
581.636	279
579.609	276
577.583	293
575.555	290
573.527	287
571.5	291
569.471	284
567.441	305.5
565.412	290.5
563.382	301
561.351	317.5
559.32	325.5
557.289	322
555.257	318
553.223	338
551.19	344
549.157	355
547.122	380
545.088	400.5
543.053	397.5
541.017	438.5
538.981	486
536.943	559.5
534.907	671.5
532.869	871.5
530.831	1222
528.792	1763.5
526.752	2710.5
524.713	3997.5
522.673	4886
520.632	4746
518.591	3811
516.549	2698
514.507	1844.5
512.464	1211
510.42	833
508.377	676.5
506.332	537.5
504.288	477
502.242	440
500.196	429
498.15	401
496.104	384.5
494.056	386
492.008	386.5
489.96	372.5
487.911	364
485.862	363
483.812	368.5
481.761	355
479.71	359.5
477.659	359
475.607	347.5
473.555	359
471.502	337
469.448	341.5
467.395	335
465.34	344.5
463.285	337
461.23	337.5
459.174	330.5
457.118	338.5
455.061	347.5
453.003	347.5
450.945	352.5
448.887	334
446.828	358.5
444.768	364.5
442.708	372
440.647	359
438.587	356.5
436.525	365
434.463	377
432.4	385
430.337	380.5
428.274	349
426.21	367
424.145	388.5
422.079	384
420.014	370
417.948	375.5
415.882	384
413.814	375.5
411.746	387
409.679	379.5
407.609	373.5
405.54	401.5
403.47	397
401.401	391.5
399.329	383
397.258	387
395.187	403
393.114	399.5
391.041	394.5
388.968	405.5
386.895	405
384.82	419.5
382.745	424.5
380.67	406.5
378.594	415
376.517	409
374.44	425.5
372.363	429
370.286	413.5
368.207	408
366.128	434.5
364.049	434
361.969	429.5
359.888	420
357.807	446
355.725	453.5
353.643	444
351.561	445
349.477	461
347.394	465.5
345.31	480
343.226	471
341.141	475.5
339.055	488.5
336.968	494.5
334.882	482
332.795	496.5
330.707	501
328.618	507
326.53	536
324.44	538
322.351	541.5
320.26	555
318.17	565
316.078	589
313.987	604.5
311.895	643
309.802	658
307.708	650
305.614	683
303.52	690
301.425	680.5
299.329	671
297.233	652.5
295.137	638.5
293.039	608
290.942	616.5
288.844	618
286.745	598.5
284.647	589.5
282.546	580.5
280.446	594
278.346	585
276.245	610
274.143	608.5
272.041	596
269.939	605.5
267.835	616
265.731	613
263.627	634.5
261.522	620
259.417	637.5
257.311	644
255.204	638.5
253.098	631
250.99	660.5
248.882	685
246.774	665.5
244.664	672.5
242.555	681
240.445	703.5
238.334	699
236.223	717.5
234.112	730.5
232	716
229.888	723
227.775	725
225.661	728
223.546	764.5
221.431	765.5
219.316	762.5
217.201	769.5
215.084	771.5
212.967	802.5
210.85	807.5
208.732	812
206.614	837
204.495	860.5
202.375	838.5
200.256	852.5
198.135	863
196.014	871.5
193.893	888
191.771	926
189.648	925.5
187.525	948.5
185.401	958
183.277	967.5
181.152	978
179.027	1011.5
176.901	1040.5
174.775	1044.5
172.648	1056
170.521	1072.5
168.393	1083
166.265	1109
164.136	1114
162.007	1117.5
159.876	1162.5
157.746	1164
155.615	1217
153.483	1238
151.351	1246
149.219	1278.5
147.086	1325.5
144.952	1317.5
142.818	1354
140.684	1382.5
138.548	1396
136.413	1412
134.276	1485.5
132.139	1519
130.002	1542
127.864	1573
125.725	1606
123.587	1651.5
121.447	1674
119.307	1721.5
117.166	1742
115.026	1791
112.885	1849
110.743	1874.5
108.6	1889
106.456	1917
104.313	1878
102.169	1842.5
100.023	1813.5
97.8789	1712
95.7328	1570.5
93.5869	1438
91.4392	1250.5
89.2919	1122
87.1447	938
84.9959	801
