3528.51	203
3527.23	215.5
3525.95	217
3524.67	225.5
3523.39	230
3522.1	230.5
3520.82	218
3519.54	224.5
3518.26	237.5
3516.97	227
3515.69	221.5
3514.4	231
3513.12	222.5
3511.84	231
3510.55	237.5
3509.26	237.5
3507.98	241.5
3506.69	241.5
3505.41	246
3504.12	248.5
3502.83	248
3501.54	251.5
3500.26	256.5
3498.97	249.5
3497.68	269
3496.39	259
3495.1	267
3493.81	277
3492.52	287
3491.23	295.5
3489.94	298
3488.65	284
3487.36	306.5
3486.07	304
3484.78	304
3483.49	315
3482.19	315
3480.9	318.5
3479.61	323
3478.31	335
3477.02	326
3475.73	338
3474.43	342
3473.14	348.5
3471.84	340.5
3470.54	349
3469.25	350.5
3467.95	364.5
3466.66	360.5
3465.36	346.5
3464.06	349
3462.76	355
3461.46	356
3460.17	368.5
3458.87	359
3457.57	381
3456.27	370
3454.97	380.5
3453.67	387
3452.37	376.5
3451.07	386
3449.77	399.5
3448.47	394.5
3447.16	389
3445.86	424.5
3444.56	413
3443.26	420.5
3441.95	432
3440.65	442
3439.35	446.5
3438.04	449
3436.74	452
3435.43	470
3434.13	483.5
3432.82	473.5
3431.52	496
3430.21	501.5
3428.9	509
3427.6	518.5
3426.29	536
3424.98	539
3423.67	548.5
3422.36	554
3421.06	543
3419.75	544
3418.44	575.5
3417.13	583.5
3415.82	576
3414.51	575
3413.2	581.5
3411.88	594
3410.57	615
3409.26	595
3407.95	616
3406.64	621.5
3405.32	609
3404.01	619.5
3402.7	624
3401.38	628
3400.07	643
3398.75	648.5
3397.44	642.5
3396.12	653
3394.81	666.5
3393.49	660
3392.18	664
3390.86	672
3389.54	665.5
3388.23	680
3386.91	686
3385.59	700.5
3384.27	703
3382.95	721
3381.63	729
3380.31	727
3378.99	744
3377.67	761.5
3376.35	749
3375.03	744.5
3373.71	762.5
3372.39	772
3371.07	774
3369.75	783.5
3368.42	784.5
3367.1	811.5
3365.78	799.5
3364.45	813
3363.13	806
3361.81	814.5
3360.48	825
3359.16	831.5
3357.83	827
3356.51	822.5
3355.18	828
3353.85	856
3352.53	841.5
3351.2	830
3349.87	860
3348.54	860.5
3347.22	864
3345.89	843
3344.56	865
3343.23	844
3341.9	869.5
3340.57	880.5
3339.24	870
3337.91	880.5
3336.58	906.5
3335.25	898
3333.92	890
3332.58	897.5
3331.25	909
3329.92	878
3328.59	909
3327.25	918
3325.92	908.5
3324.58	924
3323.25	931.5
3321.92	941
3320.58	938.5
3319.25	932.5
3317.91	944
3316.57	958
3315.24	973
3313.9	962
3312.56	970
3311.23	969.5
3309.89	974
3308.55	961.5
3307.21	990
3305.87	990
3304.53	982.5
3303.19	1009
3301.85	1007.5
3300.51	1003
3299.17	987
3297.83	1015
3296.49	1037
3295.15	1010.5
3293.81	1026
3292.46	1023
3291.12	1021
3289.78	1010
3288.43	1048.5
3287.09	1026
3285.75	1015
3284.4	1034.5
3283.06	1027
3281.71	1036
3280.37	1035.5
3279.02	1060
3277.67	1049
3276.33	1061.5
3274.98	1101.5
3273.63	1067
3272.28	1095.5
3270.94	1124.5
3269.59	1119
3268.24	1142
3266.89	1142
3265.54	1159
3264.19	1180
3262.84	1195
3261.49	1224.5
3260.14	1218
3258.79	1241
3257.44	1278.5
3256.08	1311
3254.73	1315.5
3253.38	1353.5
3252.03	1401.5
3250.67	1426
3249.32	1456.5
3247.96	1488
3246.61	1555.5
3245.26	1573
3243.9	1626
3242.54	1665.5
3241.19	1687
3239.83	1742.5
3238.48	1774.5
3237.12	1856
3235.76	1851
3234.41	1921.5
3233.05	1982.5
3231.69	1994.5
3230.33	2014
3228.97	2079.5
3227.61	2112
3226.25	2135
3224.89	2212.5
3223.53	2180
3222.17	2249
3220.81	2241
3219.45	2289
3218.09	2335.5
3216.72	2335
3215.36	2349.5
3214	2371.5
3212.63	2388.5
3211.27	2418
3209.91	2404.5
3208.54	2477.5
3207.18	2443.5
3205.81	2508.5
3204.45	2480.5
3203.08	2519
3201.71	2547.5
3200.35	2516.5
3198.98	2552
3197.61	2573.5
3196.25	2550
3194.88	2597.5
3193.51	2602
3192.14	2616.5
3190.77	2617.5
3189.4	2633.5
3188.03	2616
3186.66	2647
3185.29	2640
3183.92	2705
3182.55	2683.5
3181.18	2695
3179.81	2775
3178.44	2753
3177.06	2811
3175.69	2799
3174.32	2816.5
3172.94	2847
3171.57	2867
3170.2	2850.5
3168.82	2866.5
3167.45	2933.5
3166.07	2951.5
3164.69	2982
3163.32	2983.5
3161.94	3001.5
3160.56	3036.5
3159.19	3054.5
3157.81	3121
3156.43	3143.5
3155.05	3109.5
3153.67	3163.5
3152.3	3154
3150.92	3166
3149.54	3191.5
3148.16	3217.5
3146.78	3252.5
3145.4	3301
3144.01	3276
3142.63	3323
3141.25	3333
3139.87	3315.5
3138.49	3380.5
3137.1	3392
3135.72	3421
3134.34	3423
3132.95	3402
3131.57	3517.5
3130.18	3480
3128.8	3503
3127.41	3566.5
3126.03	3558.5
3124.64	3567.5
3123.25	3672.5
3121.87	3662
3120.48	3642.5
3119.09	3695
3117.7	3688.5
3116.32	3748
3114.93	3767
3113.54	3728
3112.15	3780.5
3110.76	3779
3109.37	3770.5
3107.98	3819.5
3106.59	3836
3105.2	3861.5
3103.8	3901
3102.41	3874.5
3101.02	3904
3099.63	3922
3098.23	3907
3096.84	3935.5
3095.45	3930.5
3094.05	3952
3092.66	3998
3091.26	3979
3089.87	4014
3088.47	4029.5
3087.08	4039
3085.68	4057
3084.28	4061.5
3082.89	4063.5
3081.49	4065.5
3080.09	4089
3078.69	4103.5
3077.3	4127
3075.9	4140.5
3074.5	4163.5
3073.1	4116
3071.7	4132
3070.3	4181
3068.9	4144
3067.5	4131
3066.09	4162
3064.69	4196
3063.29	4224
3061.89	4239
3060.48	4261
3059.08	4259.5
3057.68	4268.5
3056.27	4220
3054.87	4306
3053.46	4255
3052.06	4324.5
3050.65	4326
3049.25	4323
3047.84	4328
3046.44	4340.5
3045.03	4379
3043.62	4403.5
3042.21	4433
3040.81	4375
3039.4	4379.5
3037.99	4399.5
3036.58	4454.5
3035.17	4472.5
3033.76	4448
3032.35	4464
3030.94	4498.5
3029.53	4456
3028.12	4492.5
3026.71	4460
3025.29	4507.5
3023.88	4540.5
3022.47	4520
3021.06	4485.5
3019.64	4491.5
3018.23	4493
3016.82	4574.5
3015.4	4526
3013.99	4537
3012.57	4558
3011.15	4553.5
3009.74	4635
3008.32	4568.5
3006.91	4578.5
3005.49	4587.5
3004.07	4570
3002.65	4603.5
3001.24	4633.5
2999.82	4618
2998.4	4690
2996.98	4685
2995.56	4759
2994.14	4742.5
2992.72	4767.5
2991.3	4776
2989.88	4840
2988.46	4803.5
2987.03	4845
2985.61	4853.5
2984.19	4893
2982.77	4943
2981.34	4969
2979.92	4922
2978.49	4985.5
2977.07	5008
2975.65	4986.5
2974.22	5038.5
2972.79	5057
2971.37	5060.5
2969.94	5109
2968.52	5087.5
2967.09	5106
2965.66	5197
2964.23	5128
2962.81	5172
2961.38	5187.5
2959.95	5200
2958.52	5183
2957.09	5216.5
2955.66	5225.5
2954.23	5190
2952.8	5218.5
2951.37	5199
2949.94	5250.5
2948.5	5234.5
2947.07	5253.5
2945.64	5248.5
2944.21	5312
2942.77	5235.5
2941.34	5305.5
2939.91	5307
2938.47	5346.5
2937.04	5301
2935.6	5317
2934.17	5343
2932.73	5403.5
2931.29	5428
2929.86	5440.5
2928.42	5430
2926.98	5438.5
2925.55	5434
2924.11	5458
2922.67	5475
2921.23	5410
2919.79	5444.5
2918.35	5438
2916.91	5434
2915.47	5480.5
2914.03	5475
2912.59	5460
2911.15	5509
2909.71	5568.5
2908.26	5555
2906.82	5524
2905.38	5535.5
2903.94	5547
2902.49	5538
2901.05	5577.5
2899.6	5555.5
2898.16	5557.5
2896.71	5568
2895.27	5599.5
2893.82	5602.5
2892.38	5619
2890.93	5619
2889.48	5597.5
2888.03	5610
2886.59	5610.5
2885.14	5632.5
2883.69	5648
2882.24	5613
2880.79	5624
2879.34	5647.5
2877.89	5681.5
2876.44	5643.5
2874.99	5638.5
2873.54	5666.5
2872.09	5693
2870.64	5675.5
2869.18	5739
2867.73	5724.5
2866.28	5697
2864.83	5676
2863.37	5681.5
2861.92	5724.5
2860.46	5707
2859.01	5647
2857.55	5727.5
2856.1	5681
2854.64	5656
2853.19	5711
2851.73	5672.5
2850.27	5711
2848.81	5732.5
2847.36	5730
2845.9	5674.5
2844.44	5703.5
2842.98	5743
2841.52	5669.5
2840.06	5704.5
2838.6	5746
2837.14	5708.5
2835.68	5748
2834.22	5721.5
2832.76	5710
2831.3	5685.5
2829.83	5688
2828.37	5700
2826.91	5702
2825.44	5714.5
2823.98	5634.5
2822.52	5688.5
2821.05	5697.5
2819.59	5636
2818.12	5678.5
2816.66	5625.5
2815.19	5604
2813.72	5632.5
2812.26	5651
2810.79	5623.5
2809.32	5660
2807.85	5641.5
2806.38	5643.5
2804.92	5647
2803.45	5663
2801.98	5603.5
2800.51	5623
2799.04	5631.5
2797.57	5576
2796.1	5640
2794.62	5559
2793.15	5566.5
2791.68	5576
2790.21	5580.5
2788.73	5551
2787.26	5595.5
2785.79	5610.5
2784.31	5610
2782.84	5642.5
2781.36	5604
2779.89	5615
2778.41	5583
2776.94	5584
2775.46	5653
2773.99	5650.5
2772.51	5674.5
2771.03	5685
2769.55	5698.5
2768.07	5750.5
2766.6	5710.5
2765.12	5754
2763.64	5730
2762.16	5733.5
2760.68	5701.5
2759.2	5710.5
2757.72	5713
2756.24	5723.5
2754.75	5690.5
2753.27	5743.5
2751.79	5767
2750.31	5730
2748.82	5692
2747.34	5706
2745.86	5684
2744.37	5652
2742.89	5726
2741.4	5717.5
2739.92	5706
2738.43	5653
2736.94	5693.5
2735.46	5673
2733.97	5632.5
2732.48	5713
2731	5613.5
2729.51	5666
2728.02	5621
2726.53	5656
2725.04	5640
2723.55	5647
2722.06	5668.5
2720.57	5641.5
2719.08	5704.5
2717.59	5642
2716.1	5623.5
2714.61	5641.5
2713.11	5651
2711.62	5643.5
2710.13	5622.5
2708.64	5672.5
2707.14	5639
2705.65	5623
2704.15	5595.5
2702.66	5592.5
2701.16	5628.5
2699.67	5561
2698.17	5549
2696.67	5612.5
2695.18	5560
2693.68	5559
2692.18	5583
2690.69	5574
2689.19	5569.5
2687.69	5541.5
2686.19	5488
2684.69	5480
2683.19	5484.5
2681.69	5484.5
2680.19	5442
2678.69	5490.5
2677.19	5428
2675.68	5466
2674.18	5461
2672.68	5466
2671.18	5394
2669.67	5493
2668.17	5441.5
2666.66	5433.5
2665.16	5419
2663.66	5419
2662.15	5425
2660.64	5381
2659.14	5356
2657.63	5405
2656.13	5360
2654.62	5316.5
2653.11	5328
2651.6	5309.5
2650.09	5312
2648.58	5330
2647.08	5331.5
2645.57	5313
2644.06	5265.5
2642.55	5303.5
2641.04	5191
2639.52	5208
2638.01	5214
2636.5	5215.5
2634.99	5199
2633.48	5176.5
2631.96	5206.5
2630.45	5161
2628.94	5134
2627.42	5098
2625.91	5131
2624.39	5160
2622.88	5163.5
2621.36	5107.5
2619.85	5094.5
2618.33	5126.5
2616.81	5142.5
2615.3	5064.5
2613.78	5038
2612.26	5100.5
2610.74	5107.5
2609.22	5057
2607.7	5021
2606.18	5085.5
2604.66	5043
2603.14	5025
2601.62	5057
2600.1	4967
2598.58	4942
2597.06	4908
2595.54	4933
2594.01	4910
2592.49	4894
2590.97	4854
2589.44	4869
2587.92	4864.5
2586.39	4883
2584.87	4864.5
2583.34	4892
2581.82	4839
2580.29	4849.5
2578.76	4811
2577.24	4796
2575.71	4829.5
2574.18	4763
2572.65	4859
2571.13	4836.5
2569.6	4801
2568.07	4813
2566.54	4858
2565.01	4840
2563.48	4807.5
2561.95	4856.5
2560.42	4768
2558.88	4755
2557.35	4764.5
2555.82	4763
2554.29	4733
2552.75	4739
2551.22	4694
2549.69	4706
2548.15	4708
2546.62	4702
2545.08	4704.5
2543.55	4623
2542.01	4658
2540.47	4649
2538.94	4653.5
2537.4	4609
2535.86	4561
2534.33	4619.5
2532.79	4540.5
2531.25	4565
2529.71	4546
2528.17	4502.5
2526.63	4558.5
2525.09	4469.5
2523.55	4449
2522.01	4463
2520.47	4501
2518.92	4443
2517.38	4431
2515.84	4464.5
2514.3	4405.5
2512.75	4378
2511.21	4348
2509.67	4330.5
2508.12	4365
2506.58	4333.5
2505.03	4338
2503.49	4297.5
2501.94	4300
2500.39	4271
2498.85	4261.5
2497.3	4232
2495.75	4242.5
2494.2	4228.5
2492.65	4232
2491.11	4235
2489.56	4201.5
2488.01	4195.5
2486.46	4221.5
2484.91	4189
2483.36	4124.5
2481.8	4126
2480.25	4127.5
2478.7	4089
2477.15	4110.5
2475.6	4096.5
2474.04	4085.5
2472.49	4064.5
2470.93	4025.5
2469.38	3994.5
2467.83	4027.5
2466.27	3971.5
2464.71	3950
2463.16	3937
2461.6	3919.5
2460.05	3925.5
2458.49	3926
2456.93	3890.5
2455.37	3876
2453.81	3873
2452.26	3866.5
2450.7	3834
2449.14	3802.5
2447.58	3776
2446.02	3769.5
2444.46	3750
2442.9	3749.5
2441.33	3713.5
2439.77	3762
2438.21	3703.5
2436.65	3736.5
2435.08	3736
2433.52	3699
2431.96	3721
2430.39	3667.5
2428.83	3690
2427.26	3732.5
2425.7	3668.5
2424.13	3678.5
2422.56	3628.5
2421	3615
2419.43	3627.5
2417.86	3554
2416.3	3614.5
2414.73	3559.5
2413.16	3593.5
2411.59	3602
2410.02	3600
2408.45	3562.5
2406.88	3543.5
2405.31	3569
2403.74	3549.5
2402.17	3516
2400.6	3546
2399.02	3503.5
2397.45	3513.5
2395.88	3491
2394.3	3480.5
2392.73	3450
2391.16	3495
2389.58	3449.5
2388.01	3433
2386.43	3446
2384.86	3458.5
2383.28	3420.5
2381.7	3432.5
2380.13	3393
2378.55	3433.5
2376.97	3435.5
2375.39	3416
2373.81	3421.5
2372.23	3392.5
2370.65	3391
2369.07	3387.5
2367.49	3338
2365.91	3386
2364.33	3354.5
2362.75	3365.5
2361.17	3324
2359.59	3330.5
2358.01	3317.5
2356.42	3336
2354.84	3327.5
2353.25	3334.5
2351.67	3332
2350.09	3350.5
2348.5	3340.5
2346.92	3326
2345.33	3319.5
2343.74	3297
2342.16	3303.5
2340.57	3323
2338.98	3235
2337.39	3265
2335.81	3238
2334.22	3228
2332.63	3262
2331.04	3246.5
2329.45	3225
2327.86	3181.5
2326.27	3173
2324.68	3172
2323.09	3187.5
2321.49	3223.5
2319.9	3131
2318.31	3160.5
2316.72	3134
2315.12	3079.5
2313.53	3084.5
2311.93	3092
2310.34	3059.5
2308.74	3090.5
2307.15	3051.5
2305.55	3054
2303.96	3042.5
2302.36	3004.5
2300.76	3041
2299.17	3027.5
2297.57	3037
2295.97	3000.5
2294.37	2976.5
2292.77	2918.5
2291.17	2982.5
2289.57	2965.5
2287.97	2943.5
2286.37	2931.5
2284.77	2948
2283.17	2966
2281.57	2932
2279.96	2874.5
2278.36	2987
2276.76	2912.5
2275.15	2917
2273.55	2928.5
2271.95	2867
2270.34	2888.5
2268.74	2828.5
2267.13	2832
2265.52	2797
2263.92	2802
2262.31	2797.5
2260.7	2818.5
2259.1	2818.5
2257.49	2772
2255.88	2774
2254.27	2785
2252.66	2751
2251.05	2797
2249.44	2749.5
2247.83	2776
2246.22	2769.5
2244.61	2748
2243	2802
2241.39	2723
2239.77	2699.5
2238.16	2696
2236.55	2687
2234.93	2687
2233.32	2666
2231.7	2669.5
2230.09	2663.5
2228.47	2597.5
2226.86	2604
2225.24	2629
2223.63	2575.5
2222.01	2583.5
2220.39	2593
2218.77	2585
2217.16	2528
2215.54	2550.5
2213.92	2497
2212.3	2511.5
2210.68	2526
2209.06	2536
2207.44	2511.5
2205.82	2498
2204.19	2478.5
2202.57	2510
2200.95	2473.5
2199.33	2483.5
2197.7	2444.5
2196.08	2449
2194.46	2438.5
2192.83	2500.5
2191.21	2441.5
2189.58	2395
2187.96	2412.5
2186.33	2431
2184.7	2413.5
2183.08	2408.5
2181.45	2422
2179.82	2334
2178.19	2372.5
2176.57	2349.5
2174.94	2347.5
2173.31	2334
2171.68	2347
2170.05	2337
2168.42	2331.5
2166.79	2315
2165.16	2323.5
2163.52	2302
2161.89	2278
2160.26	2282.5
2158.63	2265.5
2156.99	2251.5
2155.36	2254.5
2153.73	2234
2152.09	2250
2150.46	2263
2148.82	2211.5
2147.18	2198
2145.55	2191.5
2143.91	2216.5
2142.27	2194
2140.64	2187.5
2139	2172
2137.36	2151
2135.72	2145
2134.08	2161
2132.44	2154.5
2130.8	2138
2129.16	2123
2127.52	2086
2125.88	2079
2124.24	2052.5
2122.6	2065
2120.95	2037
2119.31	2029.5
2117.67	2026
2116.02	2003.5
2114.38	2007.5
2112.74	1965.5
2111.09	1989
2109.45	1984
2107.8	1991
2106.15	1988.5
2104.51	1960
2102.86	1970.5
2101.21	1961
2099.56	1961.5
2097.92	1939
2096.27	1941.5
2094.62	1949
2092.97	1940.5
2091.32	1910
2089.67	1935.5
2088.02	1941.5
2086.37	1935
2084.72	1921.5
2083.06	1900
2081.41	1894
2079.76	1922.5
2078.1	1908.5
2076.45	1899
2074.8	1897.5
2073.14	1887.5
2071.49	1893.5
2069.83	1910
2068.18	1876.5
2066.52	1866
2064.86	1844
2063.21	1848.5
2061.55	1851.5
2059.89	1844.5
2058.23	1844
2056.57	1867
2054.92	1803
2053.26	1815.5
2051.6	1809.5
2049.94	1815
2048.27	1771
2046.61	1787.5
2044.95	1746
2043.29	1772
2041.63	1762
2039.97	1747
2038.3	1747.5
2036.64	1726.5
2034.97	1718.5
2033.31	1712
2031.64	1721
2029.98	1688
2028.31	1686.5
2026.65	1672
2024.98	1649
2023.31	1663
2021.65	1644
2019.98	1654
2018.31	1630.5
2016.64	1639.5
2014.97	1620.5
2013.3	1639.5
2011.63	1605.5
2009.96	1595.5
2008.29	1590.5
2006.62	1587
2004.95	1601
2003.28	1573
2001.6	1554
1999.93	1583.5
1998.26	1543.5
1996.58	1562
1994.91	1539.5
1993.24	1568
1991.56	1580.5
1989.89	1551.5
1988.21	1510
1986.53	1520
1984.86	1532.5
1983.18	1506
1981.5	1522.5
1979.82	1503.5
1978.15	1506.5
1976.47	1504.5
1974.79	1493.5
1973.11	1497.5
1971.43	1467
1969.75	1450
1968.07	1459.5
1966.38	1455
1964.7	1427
1963.02	1431.5
1961.34	1442.5
1959.66	1437
1957.97	1429
1956.29	1429
1954.6	1420
1952.92	1413.5
1951.23	1382.5
1949.55	1420
1947.86	1393.5
1946.18	1393.5
1944.49	1363.5
1942.8	1371
1941.11	1391
1939.43	1364.5
1937.74	1344
1936.05	1363
1934.36	1367.5
1932.67	1362.5
1930.98	1347.5
1929.29	1321
1927.6	1326.5
1925.91	1314.5
1924.21	1320.5
1922.52	1307
1920.83	1290
1919.14	1279
1917.44	1296.5
1915.75	1286
1914.05	1277.5
1912.36	1276
1910.66	1285
1908.97	1266
1907.27	1257
1905.58	1256
1903.88	1254
1902.18	1247.5
1900.48	1225.5
1898.79	1210
1897.09	1205.5
1895.39	1214
1893.69	1204.5
1891.99	1197.5
1890.29	1208
1888.59	1193
1886.89	1187.5
1885.18	1165
1883.48	1162
1881.78	1144.5
1880.08	1144
1878.37	1128.5
1876.67	1133.5
1874.96	1128.5
1873.26	1123
1871.55	1107.5
1869.85	1118
1868.14	1119.5
1866.44	1119
1864.73	1112.5
1863.02	1123
1861.32	1106.5
1859.61	1087.5
1857.9	1069.5
1856.19	1057.5
1854.48	1072
1852.77	1104
1851.06	1061
1849.35	1085
1847.64	1064.5
1845.93	1063
1844.21	1048
1842.5	1055
1840.79	1039.5
1839.08	1039
1837.36	1037
1835.65	1035.5
1833.93	1030.5
1832.22	1022
1830.5	1050.5
1828.79	1015
1827.07	1012.5
1825.36	1005.5
1823.64	1007.5
1821.92	1000.5
1820.2	991.5
1818.48	964.5
1816.77	1003.5
1815.05	946
1813.33	983
1811.61	973.5
1809.89	939.5
1808.16	954
1806.44	927
1804.72	947.5
1803	942.5
1801.28	928
1799.55	934
1797.83	938
1796.11	911.5
1794.38	931
1792.66	927.5
1790.93	908.5
1789.21	931.5
1787.48	896.5
1785.75	902.5
1784.03	908
1782.3	893.5
1780.57	881
1778.84	869
1777.11	873.5
1775.38	874.5
1773.66	883
1771.93	890
1770.19	875
1768.46	869
1766.73	874
1765	879.5
1763.27	857
1761.54	876
1759.8	853
1758.07	861.5
1756.34	846
1754.6	857
1752.87	855
1751.13	848.5
1749.4	834
1747.66	825
1745.92	833
1744.19	813.5
1742.45	854.5
1740.71	837
1738.97	856.5
1737.23	805.5
1735.49	830
1733.75	810
1732.01	826
1730.27	805
1728.53	822
1726.79	805
1725.05	816
1723.31	806
1721.57	782
1719.82	782
1718.08	787.5
1716.34	769
1714.59	767.5
1712.85	773
1711.1	769.5
1709.36	768.5
1707.61	740.5
1705.86	746
1704.12	768
1702.37	753
1700.62	752
1698.87	732.5
1697.12	739.5
1695.37	726.5
1693.62	723.5
1691.87	715
1690.12	725
1688.37	707
1686.62	704.5
1684.87	708
1683.12	713
1681.36	716
1679.61	689
1677.86	697
1676.1	685
1674.35	697.5
1672.59	700
1670.84	687
1669.08	678
1667.33	687.5
1665.57	691.5
1663.81	701.5
1662.06	687.5
1660.3	687.5
1658.54	679
1656.78	684
1655.02	664
1653.26	656.5
1651.5	661.5
1649.74	655.5
1647.98	662.5
1646.22	667
1644.46	642
1642.7	651
1640.93	644
1639.17	641
1637.41	658.5
1635.64	648
1633.88	633.5
1632.11	642
1630.35	629.5
1628.58	643
1626.81	625
1625.05	619
1623.28	618
1621.51	615
1619.75	591.5
1617.98	617.5
1616.21	620.5
1614.44	604
1612.67	612
1610.9	603.5
1609.13	596.5
1607.36	601.5
1605.58	610.5
1603.81	600
1602.04	606.5
1600.27	589
1598.49	599.5
1596.72	594.5
1594.95	582.5
1593.17	592.5
1591.4	580.5
1589.62	569.5
1587.84	583
1586.07	588
1584.29	583
1582.51	582.5
1580.74	561.5
1578.96	554
1577.18	564
1575.4	561.5
1573.62	560.5
1571.84	552
1570.06	545
1568.28	563
1566.5	531
1564.72	544
1562.93	557
1561.15	544.5
1559.37	564
1557.58	554
1555.8	549
1554.02	540
1552.23	535
1550.45	532.5
1548.66	530.5
1546.87	527
1545.09	526
1543.3	521.5
1541.51	530
1539.72	520
1537.94	510
1536.15	519.5
1534.36	512
1532.57	513
1530.78	509
1528.99	491.5
1527.2	488
1525.4	481.5
1523.61	501.5
1521.82	487
1520.03	486.5
1518.23	495.5
1516.44	473
1514.65	491
1512.85	488.5
1511.06	494.5
1509.26	494
1507.46	475
1505.67	487.5
1503.87	478
1502.07	475
1500.28	480.5
1498.48	476
1496.68	477.5
1494.88	469.5
1493.08	454
1491.28	472
1489.48	454
1487.68	465
1485.88	475.5
1484.08	452.5
1482.27	463.5
1480.47	453
1478.67	464.5
1476.86	458
1475.06	438
1473.25	462
1471.45	443
1469.64	458
1467.84	445
1466.03	439.5
1464.23	455.5
1462.42	450.5
1460.61	447
1458.8	438
1456.99	442
1455.18	439.5
1453.37	445
1451.56	454
1449.75	432.5
1447.94	450
1446.13	428.5
1444.32	438
1442.51	439
1440.7	439.5
1438.88	422.5
1437.07	414.5
1435.26	428
1433.44	430.5
1431.63	413.5
1429.81	429
1427.99	396
1426.18	404.5
1424.36	398.5
1422.54	422.5
1420.73	422
1418.91	417
1417.09	403.5
1415.27	404
1413.45	415
1411.63	405.5
1409.81	409
1407.99	390
1406.17	386
1404.35	391.5
1402.53	391
1400.7	375
1398.88	409
1397.06	396
1395.23	400.5
1393.41	397
1391.58	392
1389.76	398
1387.93	388
1386.11	384.5
1384.28	383
1382.45	389
1380.62	389.5
1378.8	369
1376.97	372.5
1375.14	377.5
1373.31	388
1371.48	364
1369.65	365
1367.82	379
1365.99	364.5
1364.16	370
1362.32	377
1360.49	377
1358.66	361
1356.82	366
1354.99	347
1353.16	370.5
1351.32	369
1349.48	363.5
1347.65	359.5
1345.81	355.5
1343.98	355
1342.14	341.5
1340.3	351.5
1338.46	342.5
1336.62	339
1334.79	354.5
1332.95	348.5
1331.11	352.5
1329.27	334.5
1327.42	348
1325.58	327
1323.74	335
1321.9	338.5
1320.06	339
1318.21	333
1316.37	343
1314.53	326
1312.68	335.5
1310.84	334.5
1308.99	319.5
1307.15	331
1305.3	319
1303.45	312
1301.61	324.5
1299.76	325
1297.91	307
1296.06	333
1294.21	314.5
1292.36	322
1290.51	322
1288.66	334.5
1286.81	306
1284.96	296
1283.11	303
1281.26	307
1279.4	298
1277.55	292
1275.7	303.5
1273.84	299.5
1271.99	286
1270.13	301.5
1268.28	294.5
1266.42	294
1264.56	296
1262.71	288
1260.85	288
1258.99	293
1257.13	269
1255.27	296.5
1253.41	278
1251.56	295
1249.7	286.5
1247.83	286.5
1245.97	287.5
1244.11	284.5
1242.25	275
1240.39	279.5
1238.52	289.5
1236.66	277
1234.8	277.5
1232.93	263.5
1231.07	271
1229.2	276
1227.34	267.5
1225.47	279.5
1223.6	269
1221.74	276
1219.87	269.5
1218	275
1216.13	276
1214.26	263
1212.39	273.5
1210.53	255.5
1208.65	266
1206.78	273
1204.91	267
1203.04	246.5
1201.17	270.5
1199.3	263
1197.42	252.5
1195.55	250
1193.68	247.5
1191.8	256
1189.93	251.5
1188.05	245
1186.17	247.5
1184.3	262
1182.42	245.5
1180.54	234.5
1178.67	245
1176.79	229
1174.91	250.5
1173.03	243.5
1171.15	252
1169.27	242.5
1167.39	240.5
1165.51	241.5
1163.63	243.5
1161.75	260.5
1159.86	230.5
1157.98	236.5
1156.1	240
1154.21	250
1152.33	235
1150.44	241.5
1148.56	240
1146.67	243.5
1144.79	231.5
1142.9	228.5
1141.01	243
1139.12	232
1137.24	243
1135.35	238
1133.46	240
1131.57	235
1129.68	222
1127.79	236
1125.9	238.5
1124.01	224.5
1122.12	226.5
1120.22	218
1118.33	229
1116.44	220
1114.54	233.5
1112.65	225.5
1110.75	217.5
1108.86	215
1106.96	209
1105.07	218
1103.17	208.5
1101.27	207.5
1099.38	221
1097.48	224
1095.58	212.5
1093.68	214.5
1091.78	224.5
1089.88	226
1087.98	205
1086.08	208
1084.18	216
1082.28	207.5
1080.38	209
1078.47	207.5
1076.57	214
1074.67	214.5
1072.76	205.5
1070.86	204
1068.95	196
1067.05	195.5
1065.14	195
1063.24	198
1061.33	210
1059.42	195
1057.51	203.5
1055.6	202
1053.7	208
1051.79	197
1049.88	197.5
1047.97	195.5
1046.06	195
1044.14	189.5
1042.23	193.5
1040.32	191.5
1038.41	195.5
1036.5	199.5
1034.58	207.5
1032.67	196.5
1030.75	198.5
1028.84	208
1026.92	211
1025.01	198
1023.09	206
1021.17	195
1019.26	201.5
1017.34	207.5
1015.42	210
1013.5	210.5
1011.58	210
1009.66	208.5
1007.74	211
1005.82	206.5
1003.9	216.5
1001.98	213.5
1000.06	213
998.134	220
996.212	229.5
994.288	224
992.364	243
990.44	244
988.515	264
986.589	260
984.663	287.5
982.737	282.5
980.81	278
978.883	276.5
976.955	286
975.027	279
973.098	290
971.169	290
969.239	281
967.308	281.5
965.378	287.5
963.447	283
961.516	303.5
959.583	296.5
957.65	301.5
955.718	301
953.784	302.5
951.85	312
949.916	308.5
947.981	320.5
946.045	333.5
944.109	334
942.173	319
940.236	325
938.298	330
936.36	311
934.422	296.5
932.484	275
930.544	257.5
928.604	218
926.664	209
924.724	198
922.782	205.5
920.84	197.5
918.898	196
916.955	189
915.012	193
913.068	199.5
911.124	181
909.18	190
907.235	189.5
905.289	189
903.343	182.5
901.397	188.5
899.45	188
897.502	188.5
895.554	179
893.605	183.5
891.657	193
889.707	189
887.758	187.5
885.807	171
883.856	180.5
881.905	184
879.953	188
878.001	184
876.048	198
874.094	177.5
872.14	183
870.186	183
868.232	177
866.276	182.5
864.321	180.5
862.365	194
860.408	185.5
858.451	179.5
856.493	184
854.535	187.5
852.576	182.5
850.617	179.5
848.658	181
846.698	180.5
844.737	177
842.776	180.5
840.814	169
838.852	184
836.89	184
834.927	177
832.963	184.5
830.999	182
829.035	176
827.07	169
825.105	176
823.139	176
821.172	174
819.206	170.5
817.238	186
815.27	168
813.301	172
811.333	178
809.363	189.5
807.394	174
805.424	188
803.453	171.5
801.482	181.5
799.509	173
797.538	167
795.565	181
793.592	165
791.618	162
789.643	167.5
787.669	172.5
785.693	167.5
783.718	167.5
781.742	170.5
779.765	168.5
777.788	173.5
775.811	166.5
773.832	175
771.853	159.5
769.875	163
767.895	150
765.915	160.5
763.934	169
761.953	161
759.972	151.5
757.99	167
756.007	162
754.024	163
752.041	166
750.056	160
748.072	166
746.087	172
744.102	166
742.116	162.5
740.13	167
738.143	168.5
736.155	169
734.167	155.5
732.179	172.5
730.19	168
728.2	173
726.21	166
724.22	171
722.229	165
720.237	167.5
718.246	164.5
716.253	166
714.26	160.5
712.267	165
710.273	170
708.279	166
706.284	176
704.289	176
702.293	178.5
700.296	173
698.3	176.5
696.303	184.5
694.305	181
692.307	182
690.307	174
688.308	184
686.309	190.5
684.308	191
682.308	192
680.306	189.5
678.304	179
676.302	188
674.3	200.5
672.296	205
670.293	188.5
668.289	191.5
666.284	196
664.278	205
662.273	199.5
660.266	187.5
658.26	187.5
656.252	204
654.244	205.5
652.237	207.5
650.227	197
648.218	211
646.209	202.5
644.198	195.5
642.188	207.5
640.177	202
638.165	197.5
636.153	225.5
634.14	207
632.128	204.5
630.113	212.5
628.099	208.5
626.085	232
624.07	223
622.054	223
620.038	223
618.021	217
616.004	210.5
613.986	214
611.968	212
609.949	209.5
607.93	213.5
605.911	213
603.891	202.5
601.87	223
599.848	213.5
597.827	209
595.805	210.5
593.782	200.5
591.759	219.5
589.735	212
587.711	216.5
585.687	216
583.661	216.5
581.636	209.5
579.609	222.5
577.583	226
575.555	227
573.527	229.5
571.5	232.5
569.471	235
567.441	226
565.412	240
563.382	237
561.351	240
559.32	257
557.289	251
555.257	263
553.223	269
551.19	273.5
549.157	297
547.122	297.5
545.088	314
543.053	333
541.017	348.5
538.981	397
536.943	473.5
534.907	561.5
532.869	704
530.831	997.5
528.792	1465.5
526.752	2271.5
524.713	3299
522.673	4178.5
520.632	4148
518.591	3406.5
516.549	2401.5
514.507	1614
512.464	1081
510.42	758
508.377	575.5
506.332	463
504.288	422.5
502.242	387.5
500.196	370
498.15	368
496.104	341
494.056	327.5
492.008	327.5
489.96	327.5
487.911	318
485.862	335
483.812	316
481.761	306
479.71	319.5
477.659	305.5
475.607	304.5
473.555	325
471.502	308
469.448	325
467.395	322
465.34	322.5
463.285	326.5
461.23	311
459.174	326.5
457.118	326
455.061	327
453.003	344
450.945	339
448.887	330
446.828	354
444.768	368.5
442.708	358
440.647	370.5
438.587	371
436.525	370.5
434.463	397
432.4	393
430.337	383
428.274	376
426.21	394.5
424.145	398
422.079	384.5
420.014	397
417.948	414
415.882	394
413.814	414.5
411.746	418
409.679	421.5
407.609	420
405.54	430.5
403.47	435
401.401	425.5
399.329	422
397.258	429.5
395.187	445
393.114	431
391.041	459.5
388.968	459
386.895	465.5
384.82	472
382.745	475.5
380.67	477
378.594	487
376.517	494
374.44	499
372.363	509.5
370.286	509.5
368.207	523
366.128	507.5
364.049	549.5
361.969	532
359.888	542.5
357.807	556
355.725	551.5
353.643	581
351.561	586.5
349.477	596.5
347.394	605
345.31	614
343.226	621
341.141	632
339.055	634
336.968	653
334.882	671.5
332.795	684
330.707	684.5
328.618	706.5
326.53	707
324.44	752
322.351	746.5
320.26	763.5
318.17	791.5
316.078	804.5
313.987	839
311.895	852
309.802	890
307.708	895
305.614	914.5
303.52	945.5
301.425	915
299.329	953.5
297.233	947
295.137	929.5
293.039	952.5
290.942	945.5
288.844	958
286.745	958
284.647	973
282.546	966
280.446	993.5
278.346	1012
276.245	1022.5
274.143	1026
272.041	1071.5
269.939	1069
267.835	1092
265.731	1082
263.627	1117.5
261.522	1135
259.417	1167.5
257.311	1180
255.204	1217.5
253.098	1180
250.99	1216
248.882	1268
246.774	1269
244.664	1310
242.555	1315
240.445	1358
238.334	1402
236.223	1385.5
234.112	1427
232	1471
229.888	1492
227.775	1521
225.661	1551
223.546	1612
221.431	1634
219.316	1673
217.201	1687
215.084	1705
212.967	1733.5
210.85	1795.5
208.732	1857.5
206.614	1872
204.495	1939
202.375	1955
200.256	2018.5
198.135	2033.5
196.014	2083.5
193.893	2132.5
191.771	2148
189.648	2200
187.525	2241
185.401	2282.5
183.277	2332
181.152	2376.5
179.027	2414
176.901	2458.5
174.775	2522.5
172.648	2613
170.521	2636.5
168.393	2667.5
166.265	2725.5
164.136	2756
162.007	2779
159.876	2810
157.746	2878.5
155.615	2910
153.483	3036
151.351	3060
149.219	3163.5
147.086	3224.5
144.952	3309.5
142.818	3350.5
140.684	3437.5
138.548	3546
136.413	3607.5
134.276	3676
132.139	3848.5
130.002	3908.5
127.864	4050
125.725	4144.5
123.587	4248.5
121.447	4307
119.307	4408.5
117.166	4500
115.026	4656
112.885	4714.5
110.743	4823
108.6	4858.5
106.456	4901
104.313	4830
102.169	4712.5
100.023	4520.5
97.8789	4185.5
95.7328	3772
93.5869	3218.5
91.4392	2707.5
89.2919	2223.5
87.1447	1710
84.9959	1295
