3528.51	258
3527.23	265.5
3525.95	273.5
3524.67	292
3523.39	297.5
3522.1	274
3520.82	284
3519.54	297.5
3518.26	292
3516.97	307
3515.69	304.5
3514.4	292
3513.12	315
3511.84	292
3510.55	305.5
3509.26	290.5
3507.98	309.5
3506.69	310.5
3505.41	323.5
3504.12	315.5
3502.83	319
3501.54	324
3500.26	315.5
3498.97	327.5
3497.68	321
3496.39	335
3495.1	343
3493.81	348
3492.52	346
3491.23	348.5
3489.94	358
3488.65	360
3487.36	362.5
3486.07	373.5
3484.78	376
3483.49	393
3482.19	381.5
3480.9	391.5
3479.61	392.5
3478.31	405.5
3477.02	410
3475.73	434.5
3474.43	427
3473.14	424
3471.84	434.5
3470.54	432
3469.25	424.5
3467.95	433
3466.66	430
3465.36	446.5
3464.06	442
3462.76	441.5
3461.46	446
3460.17	462.5
3458.87	457
3457.57	452
3456.27	470
3454.97	477
3453.67	464
3452.37	463.5
3451.07	481
3449.77	478
3448.47	489.5
3447.16	494.5
3445.86	514.5
3444.56	510.5
3443.26	496
3441.95	537
3440.65	519
3439.35	554
3438.04	540.5
3436.74	574.5
3435.43	557.5
3434.13	590
3432.82	601.5
3431.52	600
3430.21	612.5
3428.9	605.5
3427.6	621.5
3426.29	648.5
3424.98	637.5
3423.67	665.5
3422.36	669.5
3421.06	688.5
3419.75	689.5
3418.44	698
3417.13	712.5
3415.82	720.5
3414.51	722.5
3413.2	738.5
3411.88	727
3410.57	727
3409.26	736.5
3407.95	751
3406.64	759
3405.32	756
3404.01	779.5
3402.7	769.5
3401.38	788
3400.07	780
3398.75	779.5
3397.44	812.5
3396.12	808.5
3394.81	819
3393.49	828
3392.18	840.5
3390.86	864.5
3389.54	854
3388.23	855.5
3386.91	871.5
3385.59	885.5
3384.27	872
3382.95	876
3381.63	881.5
3380.31	929.5
3378.99	922.5
3377.67	923
3376.35	918
3375.03	946.5
3373.71	945
3372.39	944.5
3371.07	962
3369.75	959
3368.42	966
3367.1	978.5
3365.78	968
3364.45	1006.5
3363.13	1012.5
3361.81	994.5
3360.48	1024
3359.16	1010
3357.83	1032.5
3356.51	1042.5
3355.18	1046
3353.85	1039.5
3352.53	1056.5
3351.2	1024
3349.87	1051
3348.54	1038.5
3347.22	1055.5
3345.89	1064
3344.56	1060
3343.23	1086
3341.9	1058.5
3340.57	1077
3339.24	1093
3337.91	1080
3336.58	1093
3335.25	1093.5
3333.92	1075.5
3332.58	1113.5
3331.25	1111.5
3329.92	1114
3328.59	1137.5
3327.25	1129
3325.92	1134.5
3324.58	1122.5
3323.25	1139
3321.92	1144
3320.58	1143
3319.25	1143.5
3317.91	1167
3316.57	1169.5
3315.24	1168.5
3313.9	1180.5
3312.56	1180
3311.23	1190
3309.89	1186
3308.55	1181.5
3307.21	1200
3305.87	1203
3304.53	1217
3303.19	1204.5
3301.85	1232
3300.51	1241
3299.17	1232.5
3297.83	1239.5
3296.49	1251
3295.15	1258.5
3293.81	1241
3292.46	1262
3291.12	1272
3289.78	1246
3288.43	1261.5
3287.09	1253.5
3285.75	1255.5
3284.4	1275.5
3283.06	1282.5
3281.71	1302
3280.37	1294
3279.02	1312
3277.67	1305
3276.33	1301.5
3274.98	1279.5
3273.63	1309.5
3272.28	1335
3270.94	1353
3269.59	1352
3268.24	1367
3266.89	1388
3265.54	1402
3264.19	1406.5
3262.84	1425.5
3261.49	1466.5
3260.14	1457.5
3258.79	1514
3257.44	1526
3256.08	1557
3254.73	1573
3253.38	1559.5
3252.03	1634.5
3250.67	1639
3249.32	1704
3247.96	1750.5
3246.61	1816
3245.26	1848
3243.9	1884
3242.54	1924.5
3241.19	1992
3239.83	2043.5
3238.48	2088.5
3237.12	2124.5
3235.76	2202
3234.41	2255
3233.05	2318.5
3231.69	2381
3230.33	2398
3228.97	2493.5
3227.61	2498.5
3226.25	2578.5
3224.89	2583
3223.53	2682
3222.17	2739
3220.81	2737.5
3219.45	2800
3218.09	2781
3216.72	2869.5
3215.36	2870
3214	2895.5
3212.63	2929
3211.27	2946
3209.91	3009
3208.54	2983.5
3207.18	3022
3205.81	3072
3204.45	3069.5
3203.08	3071.5
3201.71	3060.5
3200.35	3104
3198.98	3127.5
3197.61	3143
3196.25	3108
3194.88	3121.5
3193.51	3119
3192.14	3176.5
3190.77	3198.5
3189.4	3210
3188.03	3240
3186.66	3263.5
3185.29	3251.5
3183.92	3252
3182.55	3305
3181.18	3312.5
3179.81	3336.5
3178.44	3330
3177.06	3370
3175.69	3386
3174.32	3430.5
3172.94	3421.5
3171.57	3474.5
3170.2	3451
3168.82	3515
3167.45	3555
3166.07	3572
3164.69	3581
3163.32	3577
3161.94	3648
3160.56	3684.5
3159.19	3734.5
3157.81	3749
3156.43	3714
3155.05	3817
3153.67	3792
3152.3	3818
3150.92	3867.5
3149.54	3886.5
3148.16	3902.5
3146.78	3913.5
3145.4	3943.5
3144.01	3959
3142.63	3994
3141.25	4035.5
3139.87	4034
3138.49	4036.5
3137.1	4092
3135.72	4110
3134.34	4148.5
3132.95	4171
3131.57	4250
3130.18	4202.5
3128.8	4285.5
3127.41	4261
3126.03	4293
3124.64	4371
3123.25	4363.5
3121.87	4415.5
3120.48	4445
3119.09	4472.5
3117.7	4471
3116.32	4484.5
3114.93	4509
3113.54	4553
3112.15	4543.5
3110.76	4560.5
3109.37	4586.5
3107.98	4613.5
3106.59	4658
3105.2	4697
3103.8	4689.5
3102.41	4695
3101.02	4746
3099.63	4752.5
3098.23	4756.5
3096.84	4810
3095.45	4753.5
3094.05	4796
3092.66	4827
3091.26	4858
3089.87	4853
3088.47	4838
3087.08	4909.5
3085.68	4916.5
3084.28	4918
3082.89	4916.5
3081.49	4968.5
3080.09	4955
3078.69	4967.5
3077.3	4962
3075.9	5018
3074.5	4951
3073.1	5003
3071.7	4995
3070.3	5019
3068.9	5006
3067.5	5056.5
3066.09	5041
3064.69	5007.5
3063.29	5075
3061.89	5075
3060.48	5123
3059.08	5092
3057.68	5121
3056.27	5170.5
3054.87	5156.5
3053.46	5119
3052.06	5156
3050.65	5212.5
3049.25	5228.5
3047.84	5239.5
3046.44	5269.5
3045.03	5258
3043.62	5299
3042.21	5344.5
3040.81	5341.5
3039.4	5358
3037.99	5370
3036.58	5375
3035.17	5369
3033.76	5469.5
3032.35	5383
3030.94	5425
3029.53	5366
3028.12	5456
3026.71	5458.5
3025.29	5427.5
3023.88	5414
3022.47	5470
3021.06	5500
3019.64	5491.5
3018.23	5442
3016.82	5468
3015.4	5453
3013.99	5473.5
3012.57	5486.5
3011.15	5501.5
3009.74	5565.5
3008.32	5548
3006.91	5606.5
3005.49	5547.5
3004.07	5571
3002.65	5597
3001.24	5591.5
2999.82	5645
2998.4	5631
2996.98	5709.5
2995.56	5745.5
2994.14	5763.5
2992.72	5757
2991.3	5761
2989.88	5788.5
2988.46	5804.5
2987.03	5865
2985.61	5867
2984.19	5891
2982.77	5973.5
2981.34	5989.5
2979.92	5918.5
2978.49	6061
2977.07	6101
2975.65	6074
2974.22	6110
2972.79	6082.5
2971.37	6139
2969.94	6169.5
2968.52	6194
2967.09	6205
2965.66	6212
2964.23	6259
2962.81	6265.5
2961.38	6312.5
2959.95	6293
2958.52	6228.5
2957.09	6316
2955.66	6323
2954.23	6332.5
2952.8	6331.5
2951.37	6296
2949.94	6342.5
2948.5	6346
2947.07	6417.5
2945.64	6352
2944.21	6424
2942.77	6383
2941.34	6402.5
2939.91	6465.5
2938.47	6425
2937.04	6436.5
2935.6	6477.5
2934.17	6501.5
2932.73	6459
2931.29	6563.5
2929.86	6578.5
2928.42	6576.5
2926.98	6604.5
2925.55	6607
2924.11	6603
2922.67	6629
2921.23	6632.5
2919.79	6587.5
2918.35	6627.5
2916.91	6648.5
2915.47	6658
2914.03	6588.5
2912.59	6597
2911.15	6676
2909.71	6707.5
2908.26	6635.5
2906.82	6681
2905.38	6682.5
2903.94	6693.5
2902.49	6765.5
2901.05	6796.5
2899.6	6697
2898.16	6759
2896.71	6790
2895.27	6739
2893.82	6766.5
2892.38	6828.5
2890.93	6849
2889.48	6795
2888.03	6835.5
2886.59	6806.5
2885.14	6837
2883.69	6837
2882.24	6848.5
2880.79	6853
2879.34	6930
2877.89	6867.5
2876.44	6933
2874.99	6947
2873.54	6899
2872.09	6941
2870.64	6914
2869.18	6897
2867.73	6906.5
2866.28	6853.5
2864.83	6870
2863.37	6933
2861.92	6896
2860.46	6943
2859.01	6943
2857.55	6961
2856.1	6987
2854.64	6936
2853.19	6961
2851.73	6925
2850.27	6915.5
2848.81	6923.5
2847.36	6926
2845.9	6990.5
2844.44	6954.5
2842.98	6962
2841.52	6952.5
2840.06	6977
2838.6	6940.5
2837.14	6950.5
2835.68	6955.5
2834.22	6973
2832.76	6960
2831.3	6996.5
2829.83	7037
2828.37	6946
2826.91	7004.5
2825.44	6974
2823.98	6941
2822.52	6949.5
2821.05	6957
2819.59	6880
2818.12	6877
2816.66	6933.5
2815.19	6897.5
2813.72	6923.5
2812.26	6939
2810.79	6969
2809.32	6873.5
2807.85	6884
2806.38	6856
2804.92	6886
2803.45	6885
2801.98	6764
2800.51	6755
2799.04	6837
2797.57	6841
2796.1	6754.5
2794.62	6812
2793.15	6744
2791.68	6765
2790.21	6782.5
2788.73	6691.5
2787.26	6772
2785.79	6755.5
2784.31	6834
2782.84	6744
2781.36	6793
2779.89	6792
2778.41	6764.5
2776.94	6813
2775.46	6786.5
2773.99	6852.5
2772.51	6898.5
2771.03	6882
2769.55	6866.5
2768.07	6930.5
2766.6	6881.5
2765.12	6900
2763.64	6977.5
2762.16	6913
2760.68	6919
2759.2	6942
2757.72	6888
2756.24	6885
2754.75	6926.5
2753.27	6925
2751.79	6876
2750.31	6897.5
2748.82	6918.5
2747.34	6860.5
2745.86	6819
2744.37	6860.5
2742.89	6898.5
2741.4	6908
2739.92	6888.5
2738.43	6811
2736.94	6866.5
2735.46	6876
2733.97	6898.5
2732.48	6892.5
2731	6898
2729.51	6832.5
2728.02	6886.5
2726.53	6845.5
2725.04	6823.5
2723.55	6856.5
2722.06	6847.5
2720.57	6817.5
2719.08	6824.5
2717.59	6802.5
2716.1	6842.5
2714.61	6834
2713.11	6825
2711.62	6829.5
2710.13	6832.5
2708.64	6849
2707.14	6789
2705.65	6856.5
2704.15	6862
2702.66	6819.5
2701.16	6830.5
2699.67	6776
2698.17	6821
2696.67	6861
2695.18	6807
2693.68	6834
2692.18	6799.5
2690.69	6795
2689.19	6769.5
2687.69	6690
2686.19	6707.5
2684.69	6693.5
2683.19	6677
2681.69	6740
2680.19	6704.5
2678.69	6691.5
2677.19	6708.5
2675.68	6626.5
2674.18	6675
2672.68	6637
2671.18	6590.5
2669.67	6584.5
2668.17	6589
2666.66	6593.5
2665.16	6634.5
2663.66	6580.5
2662.15	6635.5
2660.64	6597.5
2659.14	6543
2657.63	6544
2656.13	6527.5
2654.62	6551
2653.11	6517.5
2651.6	6496.5
2650.09	6480.5
2648.58	6480
2647.08	6437
2645.57	6437
2644.06	6446
2642.55	6435.5
2641.04	6399
2639.52	6388
2638.01	6364.5
2636.5	6384
2634.99	6352.5
2633.48	6350.5
2631.96	6281.5
2630.45	6269
2628.94	6270.5
2627.42	6259
2625.91	6268.5
2624.39	6254.5
2622.88	6221
2621.36	6228.5
2619.85	6207
2618.33	6192
2616.81	6209
2615.3	6207
2613.78	6225.5
2612.26	6245.5
2610.74	6194.5
2609.22	6203
2607.7	6170.5
2606.18	6122.5
2604.66	6173
2603.14	6086
2601.62	6099.5
2600.1	6042
2598.58	5998
2597.06	5966
2595.54	5966.5
2594.01	5970
2592.49	5942
2590.97	5944.5
2589.44	5927.5
2587.92	5948
2586.39	5940
2584.87	5943.5
2583.34	5891
2581.82	5893
2580.29	5840.5
2578.76	5878
2577.24	5868.5
2575.71	5881.5
2574.18	5923.5
2572.65	5868.5
2571.13	5821
2569.6	5830.5
2568.07	5848.5
2566.54	5840.5
2565.01	5891
2563.48	5825
2561.95	5824
2560.42	5834
2558.88	5800.5
2557.35	5831.5
2555.82	5744
2554.29	5766
2552.75	5755
2551.22	5753
2549.69	5634.5
2548.15	5697.5
2546.62	5685
2545.08	5661
2543.55	5610
2542.01	5668
2540.47	5617.5
2538.94	5611
2537.4	5609.5
2535.86	5576.5
2534.33	5590
2532.79	5523
2531.25	5493.5
2529.71	5465
2528.17	5482
2526.63	5440.5
2525.09	5426.5
2523.55	5427.5
2522.01	5452
2520.47	5438.5
2518.92	5423
2517.38	5383.5
2515.84	5412
2514.3	5380.5
2512.75	5382
2511.21	5374.5
2509.67	5311.5
2508.12	5300.5
2506.58	5273
2505.03	5286
2503.49	5230.5
2501.94	5281
2500.39	5256
2498.85	5221.5
2497.3	5201.5
2495.75	5201.5
2494.2	5195.5
2492.65	5125
2491.11	5098
2489.56	5146
2488.01	5170
2486.46	5059.5
2484.91	5102
2483.36	5088.5
2481.8	5102
2480.25	5080
2478.7	5049
2477.15	5068
2475.6	4990.5
2474.04	4988
2472.49	4966
2470.93	4948.5
2469.38	4927
2467.83	4867.5
2466.27	4872
2464.71	4809.5
2463.16	4826.5
2461.6	4830
2460.05	4864.5
2458.49	4797
2456.93	4729
2455.37	4719.5
2453.81	4760
2452.26	4695.5
2450.7	4715
2449.14	4649
2447.58	4628
2446.02	4611.5
2444.46	4543
2442.9	4604
2441.33	4548.5
2439.77	4567.5
2438.21	4517.5
2436.65	4550.5
2435.08	4537
2433.52	4488
2431.96	4535.5
2430.39	4487.5
2428.83	4481
2427.26	4490.5
2425.7	4471
2424.13	4414
2422.56	4445
2421	4424.5
2419.43	4388.5
2417.86	4374.5
2416.3	4385
2414.73	4348
2413.16	4358
2411.59	4289
2410.02	4346
2408.45	4342.5
2406.88	4350.5
2405.31	4291
2403.74	4314.5
2402.17	4331
2400.6	4277.5
2399.02	4339.5
2397.45	4247
2395.88	4238.5
2394.3	4220
2392.73	4197.5
2391.16	4253.5
2389.58	4181
2388.01	4151
2386.43	4183
2384.86	4173.5
2383.28	4127.5
2381.7	4197.5
2380.13	4195
2378.55	4191.5
2376.97	4162
2375.39	4105.5
2373.81	4117
2372.23	4145.5
2370.65	4159
2369.07	4126
2367.49	4146
2365.91	4114.5
2364.33	4081
2362.75	4081.5
2361.17	4083.5
2359.59	4091
2358.01	4115.5
2356.42	4045.5
2354.84	4042
2353.25	4008.5
2351.67	4077
2350.09	4042.5
2348.5	4032.5
2346.92	4036
2345.33	4028.5
2343.74	3981
2342.16	4021.5
2340.57	4013
2338.98	3955
2337.39	3954
2335.81	3916.5
2334.22	3973
2332.63	3981.5
2331.04	3936
2329.45	3951.5
2327.86	3937.5
2326.27	3905.5
2324.68	3944
2323.09	3913
2321.49	3886.5
2319.9	3879.5
2318.31	3848.5
2316.72	3838.5
2315.12	3799
2313.53	3812
2311.93	3791.5
2310.34	3786
2308.74	3733.5
2307.15	3738
2305.55	3745
2303.96	3743
2302.36	3757
2300.76	3653
2299.17	3691
2297.57	3622
2295.97	3625.5
2294.37	3607
2292.77	3596
2291.17	3573
2289.57	3579.5
2287.97	3546.5
2286.37	3533
2284.77	3503.5
2283.17	3554
2281.57	3522.5
2279.96	3535
2278.36	3483
2276.76	3514.5
2275.15	3512
2273.55	3474
2271.95	3491.5
2270.34	3407.5
2268.74	3449.5
2267.13	3393
2265.52	3422
2263.92	3379.5
2262.31	3406.5
2260.7	3351
2259.1	3374
2257.49	3387.5
2255.88	3380
2254.27	3333.5
2252.66	3322.5
2251.05	3382.5
2249.44	3335.5
2247.83	3349
2246.22	3371.5
2244.61	3328.5
2243	3354
2241.39	3325
2239.77	3308.5
2238.16	3287.5
2236.55	3276.5
2234.93	3295
2233.32	3258.5
2231.7	3232
2230.09	3219
2228.47	3206.5
2226.86	3157.5
2225.24	3176
2223.63	3142
2222.01	3135.5
2220.39	3167.5
2218.77	3099
2217.16	3147.5
2215.54	3126.5
2213.92	3117.5
2212.3	3097.5
2210.68	3134
2209.06	3047.5
2207.44	3058.5
2205.82	3056
2204.19	3050
2202.57	3024
2200.95	3007.5
2199.33	2976.5
2197.7	3000
2196.08	2981
2194.46	2973.5
2192.83	2973
2191.21	2944.5
2189.58	2972.5
2187.96	2944
2186.33	2939.5
2184.7	2962
2183.08	2945.5
2181.45	2900
2179.82	2901
2178.19	2846
2176.57	2868
2174.94	2849.5
2173.31	2839.5
2171.68	2840
2170.05	2823
2168.42	2833
2166.79	2842
2165.16	2795
2163.52	2784
2161.89	2752.5
2160.26	2748
2158.63	2782.5
2156.99	2761.5
2155.36	2734
2153.73	2731.5
2152.09	2753.5
2150.46	2710.5
2148.82	2706
2147.18	2723.5
2145.55	2686
2143.91	2667
2142.27	2661.5
2140.64	2678
2139	2621.5
2137.36	2605
2135.72	2641
2134.08	2613
2132.44	2593.5
2130.8	2577.5
2129.16	2570.5
2127.52	2583.5
2125.88	2536.5
2124.24	2491
2122.6	2499.5
2120.95	2527
2119.31	2495
2117.67	2474.5
2116.02	2474.5
2114.38	2450.5
2112.74	2455.5
2111.09	2420.5
2109.45	2435.5
2107.8	2426.5
2106.15	2394.5
2104.51	2419.5
2102.86	2429
2101.21	2402
2099.56	2392.5
2097.92	2348
2096.27	2334
2094.62	2373.5
2092.97	2325.5
2091.32	2324.5
2089.67	2348.5
2088.02	2358
2086.37	2311.5
2084.72	2361
2083.06	2339.5
2081.41	2307
2079.76	2319.5
2078.1	2333.5
2076.45	2337.5
2074.8	2294
2073.14	2311
2071.49	2289
2069.83	2303
2068.18	2277
2066.52	2303.5
2064.86	2278.5
2063.21	2302
2061.55	2264
2059.89	2269.5
2058.23	2256
2056.57	2278.5
2054.92	2272
2053.26	2217
2051.6	2246
2049.94	2202
2048.27	2202.5
2046.61	2261
2044.95	2199.5
2043.29	2184
2041.63	2175.5
2039.97	2159.5
2038.3	2134
2036.64	2111
2034.97	2119.5
2033.31	2107
2031.64	2101
2029.98	2082
2028.31	2102.5
2026.65	2059.5
2024.98	2046
2023.31	2010
2021.65	2030
2019.98	2044
2018.31	1961
2016.64	2055
2014.97	1993.5
2013.3	1986.5
2011.63	1986
2009.96	1972.5
2008.29	1978.5
2006.62	1957.5
2004.95	1969.5
2003.28	1923
2001.6	1922
1999.93	1947.5
1998.26	1941
1996.58	1950.5
1994.91	1890
1993.24	1910
1991.56	1885
1989.89	1916
1988.21	1909
1986.53	1868
1984.86	1890
1983.18	1883.5
1981.5	1876.5
1979.82	1872
1978.15	1843.5
1976.47	1840
1974.79	1823
1973.11	1847.5
1971.43	1826
1969.75	1807
1968.07	1804.5
1966.38	1778.5
1964.7	1790.5
1963.02	1752
1961.34	1779
1959.66	1755.5
1957.97	1756
1956.29	1723.5
1954.6	1740.5
1952.92	1708.5
1951.23	1711.5
1949.55	1716
1947.86	1723.5
1946.18	1712
1944.49	1674.5
1942.8	1692
1941.11	1698
1939.43	1687
1937.74	1687
1936.05	1660.5
1934.36	1674
1932.67	1668.5
1930.98	1656.5
1929.29	1664
1927.6	1622.5
1925.91	1604.5
1924.21	1616.5
1922.52	1608
1920.83	1601
1919.14	1571
1917.44	1588.5
1915.75	1573.5
1914.05	1573.5
1912.36	1574.5
1910.66	1577.5
1908.97	1569
1907.27	1562
1905.58	1530
1903.88	1530.5
1902.18	1525
1900.48	1541.5
1898.79	1519.5
1897.09	1520.5
1895.39	1504.5
1893.69	1508
1891.99	1482.5
1890.29	1486
1888.59	1463.5
1886.89	1460
1885.18	1464
1883.48	1452.5
1881.78	1431.5
1880.08	1424.5
1878.37	1412
1876.67	1392
1874.96	1389
1873.26	1382.5
1871.55	1381
1869.85	1378.5
1868.14	1374
1866.44	1383.5
1864.73	1382
1863.02	1380
1861.32	1347.5
1859.61	1352
1857.9	1328.5
1856.19	1324.5
1854.48	1312
1852.77	1312
1851.06	1297
1849.35	1318
1847.64	1303.5
1845.93	1300.5
1844.21	1309.5
1842.5	1272
1840.79	1284.5
1839.08	1299.5
1837.36	1272
1835.65	1253
1833.93	1282.5
1832.22	1269.5
1830.5	1261
1828.79	1235
1827.07	1248
1825.36	1220.5
1823.64	1209
1821.92	1204
1820.2	1227.5
1818.48	1219
1816.77	1208.5
1815.05	1225
1813.33	1190.5
1811.61	1206
1809.89	1205.5
1808.16	1167.5
1806.44	1187.5
1804.72	1166
1803	1148.5
1801.28	1164
1799.55	1147
1797.83	1154
1796.11	1125
1794.38	1123
1792.66	1097.5
1790.93	1126.5
1789.21	1141.5
1787.48	1107.5
1785.75	1114.5
1784.03	1102
1782.3	1103
1780.57	1092.5
1778.84	1094.5
1777.11	1101.5
1775.38	1070.5
1773.66	1090.5
1771.93	1101
1770.19	1069.5
1768.46	1076
1766.73	1077.5
1765	1049.5
1763.27	1053
1761.54	1050.5
1759.8	1022
1758.07	1050
1756.34	1048.5
1754.6	1054
1752.87	1058
1751.13	1032.5
1749.4	1050
1747.66	1035
1745.92	1038.5
1744.19	1039.5
1742.45	1023
1740.71	1020
1738.97	1033.5
1737.23	1009
1735.49	1021
1733.75	1003.5
1732.01	1016
1730.27	1007.5
1728.53	996
1726.79	994
1725.05	996
1723.31	975.5
1721.57	969
1719.82	965
1718.08	974
1716.34	971
1714.59	975.5
1712.85	973.5
1711.1	972.5
1709.36	939
1707.61	924.5
1705.86	956
1704.12	934.5
1702.37	930
1700.62	910
1698.87	928
1697.12	912
1695.37	887
1693.62	903
1691.87	884
1690.12	898
1688.37	897
1686.62	881
1684.87	875.5
1683.12	861.5
1681.36	861.5
1679.61	871
1677.86	862.5
1676.1	848.5
1674.35	857.5
1672.59	847.5
1670.84	846.5
1669.08	850.5
1667.33	840
1665.57	836
1663.81	848.5
1662.06	835.5
1660.3	815.5
1658.54	850
1656.78	825.5
1655.02	817
1653.26	814
1651.5	827
1649.74	822
1647.98	811
1646.22	810.5
1644.46	810.5
1642.7	804
1640.93	797
1639.17	816.5
1637.41	810
1635.64	802.5
1633.88	799
1632.11	766
1630.35	776
1628.58	788
1626.81	763.5
1625.05	769.5
1623.28	779.5
1621.51	752
1619.75	760.5
1617.98	767.5
1616.21	753.5
1614.44	749.5
1612.67	750.5
1610.9	755
1609.13	749.5
1607.36	748.5
1605.58	744
1603.81	727
1602.04	763.5
1600.27	728.5
1598.49	737.5
1596.72	734.5
1594.95	736.5
1593.17	704.5
1591.4	723.5
1589.62	724.5
1587.84	726.5
1586.07	713.5
1584.29	715.5
1582.51	712
1580.74	710
1578.96	695.5
1577.18	698
1575.4	694.5
1573.62	702
1571.84	689
1570.06	682.5
1568.28	686.5
1566.5	655.5
1564.72	688
1562.93	671
1561.15	683.5
1559.37	679.5
1557.58	682
1555.8	679
1554.02	680
1552.23	676.5
1550.45	674.5
1548.66	653.5
1546.87	657.5
1545.09	645
1543.3	660.5
1541.51	634
1539.72	626
1537.94	640.5
1536.15	624.5
1534.36	630.5
1532.57	610
1530.78	611
1528.99	611.5
1527.2	610.5
1525.4	616.5
1523.61	593.5
1521.82	604.5
1520.03	616
1518.23	584
1516.44	585.5
1514.65	579.5
1512.85	584
1511.06	592
1509.26	571
1507.46	588
1505.67	588.5
1503.87	572
1502.07	590.5
1500.28	589.5
1498.48	574.5
1496.68	577
1494.88	573.5
1493.08	565.5
1491.28	571
1489.48	575
1487.68	565.5
1485.88	581
1484.08	583
1482.27	560
1480.47	584
1478.67	559.5
1476.86	554.5
1475.06	555
1473.25	544
1471.45	555
1469.64	561.5
1467.84	537
1466.03	543
1464.23	538
1462.42	542
1460.61	541
1458.8	561.5
1456.99	550.5
1455.18	547.5
1453.37	546
1451.56	551.5
1449.75	523
1447.94	538
1446.13	549
1444.32	542.5
1442.51	536.5
1440.7	531
1438.88	536.5
1437.07	526
1435.26	505.5
1433.44	510.5
1431.63	515.5
1429.81	523
1427.99	522
1426.18	522
1424.36	522
1422.54	500
1420.73	512.5
1418.91	516.5
1417.09	518
1415.27	483
1413.45	485
1411.63	497.5
1409.81	497
1407.99	504
1406.17	488
1404.35	478.5
1402.53	489
1400.7	483.5
1398.88	472
1397.06	481
1395.23	473
1393.41	482.5
1391.58	471
1389.76	470.5
1387.93	461
1386.11	470
1384.28	466.5
1382.45	472.5
1380.62	473.5
1378.8	458.5
1376.97	468
1375.14	460.5
1373.31	464
1371.48	470.5
1369.65	456
1367.82	452.5
1365.99	456
1364.16	452.5
1362.32	455
1360.49	471
1358.66	440.5
1356.82	444
1354.99	441.5
1353.16	452
1351.32	440.5
1349.48	438
1347.65	436
1345.81	435
1343.98	423.5
1342.14	432.5
1340.3	439.5
1338.46	422.5
1336.62	420.5
1334.79	414.5
1332.95	416.5
1331.11	435
1329.27	401.5
1327.42	413
1325.58	396
1323.74	424
1321.9	421
1320.06	408.5
1318.21	410.5
1316.37	401.5
1314.53	409
1312.68	400
1310.84	399
1308.99	404.5
1307.15	398.5
1305.3	393
1303.45	410.5
1301.61	389
1299.76	391
1297.91	385
1296.06	390
1294.21	392
1292.36	393
1290.51	382
1288.66	377
1286.81	385
1284.96	395
1283.11	381
1281.26	377
1279.4	369
1277.55	375
1275.7	376.5
1273.84	358
1271.99	349.5
1270.13	375.5
1268.28	358
1266.42	352
1264.56	361.5
1262.71	351
1260.85	351
1258.99	355.5
1257.13	362
1255.27	362
1253.41	351
1251.56	353
1249.7	353
1247.83	336
1245.97	354
1244.11	344
1242.25	333.5
1240.39	352.5
1238.52	352
1236.66	326
1234.8	339
1232.93	338.5
1231.07	344
1229.2	332
1227.34	338.5
1225.47	332
1223.6	340
1221.74	335.5
1219.87	319
1218	329
1216.13	334
1214.26	345.5
1212.39	331.5
1210.53	324.5
1208.65	316.5
1206.78	323
1204.91	327.5
1203.04	314.5
1201.17	313
1199.3	326
1197.42	314
1195.55	316.5
1193.68	317
1191.8	317
1189.93	320.5
1188.05	304
1186.17	319
1184.3	303
1182.42	305
1180.54	297
1178.67	316
1176.79	304.5
1174.91	299.5
1173.03	293.5
1171.15	296
1169.27	303
1167.39	297
1165.51	308
1163.63	302.5
1161.75	294
1159.86	304
1157.98	292.5
1156.1	303
1154.21	294
1152.33	294.5
1150.44	278.5
1148.56	294.5
1146.67	293
1144.79	281
1142.9	302
1141.01	301
1139.12	294
1137.24	296.5
1135.35	296
1133.46	291.5
1131.57	294.5
1129.68	288
1127.79	288
1125.9	281.5
1124.01	289
1122.12	280
1120.22	276.5
1118.33	291.5
1116.44	289
1114.54	279
1112.65	270
1110.75	281
1108.86	275.5
1106.96	271
1105.07	275
1103.17	282.5
1101.27	280
1099.38	262
1097.48	284
1095.58	270
1093.68	283.5
1091.78	274.5
1089.88	281.5
1087.98	271
1086.08	276.5
1084.18	270
1082.28	273.5
1080.38	269
1078.47	255
1076.57	262.5
1074.67	263.5
1072.76	273
1070.86	258.5
1068.95	255.5
1067.05	265
1065.14	257.5
1063.24	258
1061.33	241
1059.42	264.5
1057.51	259
1055.6	258.5
1053.7	242.5
1051.79	252
1049.88	245
1047.97	243.5
1046.06	255
1044.14	249.5
1042.23	246
1040.32	244
1038.41	252
1036.5	251.5
1034.58	260
1032.67	256.5
1030.75	242.5
1028.84	248.5
1026.92	253
1025.01	257
1023.09	258
1021.17	261
1019.26	269
1017.34	257
1015.42	255.5
1013.5	248
1011.58	259
1009.66	265
1007.74	262.5
1005.82	269.5
1003.9	270.5
1001.98	277
1000.06	274
998.134	258
996.212	291
994.288	282.5
992.364	310
990.44	310
988.515	326
986.589	316
984.663	354
982.737	332.5
980.81	327.5
978.883	351.5
976.955	346.5
975.027	351.5
973.098	350.5
971.169	349.5
969.239	335.5
967.308	346.5
965.378	349
963.447	340.5
961.516	338.5
959.583	365.5
957.65	366
955.718	362
953.784	373.5
951.85	383.5
949.916	365
947.981	369.5
946.045	370
944.109	399
942.173	400
940.236	379.5
938.298	387.5
936.36	376.5
934.422	364
932.484	332
930.544	313
928.604	300.5
926.664	256
924.724	264
922.782	256
920.84	232
918.898	247
916.955	248
915.012	249
913.068	239.5
911.124	237
909.18	245
907.235	238
905.289	233.5
903.343	237.5
901.397	223.5
899.45	234.5
897.502	244
895.554	236
893.605	226
891.657	223.5
889.707	240
887.758	226
885.807	234
883.856	234.5
881.905	227.5
879.953	228
878.001	244.5
876.048	247.5
874.094	234.5
872.14	220
870.186	237.5
868.232	227.5
866.276	225
864.321	228
862.365	240
860.408	226
858.451	223
856.493	223.5
854.535	225
852.576	215.5
850.617	216
848.658	226.5
846.698	228.5
844.737	223
842.776	223
840.814	230.5
838.852	211.5
836.89	226.5
834.927	245.5
832.963	212.5
830.999	209
829.035	222
827.07	222
825.105	223
823.139	223
821.172	219.5
819.206	210.5
817.238	231.5
815.27	212
813.301	224.5
811.333	200.5
809.363	224.5
807.394	219
805.424	205
803.453	219.5
801.482	207.5
799.509	214.5
797.538	224
795.565	201
793.592	220
791.618	218.5
789.643	215
787.669	219
785.693	222.5
783.718	212.5
781.742	208.5
779.765	209.5
777.788	209
775.811	216.5
773.832	215
771.853	214
769.875	207
767.895	203
765.915	201
763.934	200.5
761.953	194.5
759.972	210.5
757.99	201
756.007	199
754.024	203.5
752.041	204.5
750.056	193
748.072	202
746.087	212.5
744.102	190.5
742.116	204
740.13	217.5
738.143	206
736.155	193.5
734.167	199
732.179	205.5
730.19	210
728.2	193.5
726.21	200
724.22	208.5
722.229	206.5
720.237	200.5
718.246	203
716.253	205
714.26	209.5
712.267	207.5
710.273	218
708.279	204.5
706.284	200
704.289	217
702.293	212
700.296	215.5
698.3	213
696.303	223
694.305	214.5
692.307	213.5
690.307	219
688.308	216
686.309	223
684.308	221.5
682.308	220
680.306	216
678.304	222
676.302	226
674.3	240
672.296	234.5
670.293	231.5
668.289	238
666.284	240
664.278	225.5
662.273	240.5
660.266	227
658.26	239
656.252	221.5
654.244	241
652.237	229.5
650.227	235
648.218	242.5
646.209	245
644.198	247
642.188	242
640.177	252
638.165	248.5
636.153	242.5
634.14	244
632.128	258
630.113	251
628.099	250
626.085	254
624.07	251
622.054	256.5
620.038	259.5
618.021	249
616.004	243
613.986	247
611.968	249
609.949	234
607.93	247
605.911	232
603.891	246
601.87	236.5
599.848	236
597.827	231
595.805	236
593.782	236
591.759	243.5
589.735	241
587.711	256
585.687	240.5
583.661	252.5
581.636	248.5
579.609	236.5
577.583	252
575.555	250.5
573.527	247
571.5	265
569.471	253
567.441	267.5
565.412	256.5
563.382	270
561.351	271
559.32	280
557.289	290
555.257	292
553.223	302.5
551.19	307.5
549.157	322
547.122	316
545.088	352.5
543.053	350.5
541.017	378
538.981	416
536.943	487
534.907	588
532.869	754
530.831	1053
528.792	1527
526.752	2386
524.713	3514.5
522.673	4497
520.632	4492
518.591	3737.5
516.549	2672
514.507	1792.5
512.464	1170.5
510.42	832
508.377	598
506.332	511
504.288	438
502.242	408
500.196	383
498.15	358.5
496.104	351
494.056	354
492.008	336.5
489.96	331.5
487.911	324.5
485.862	317
483.812	314
481.761	322.5
479.71	294
477.659	316.5
475.607	293
473.555	316
471.502	295
469.448	283
467.395	289
465.34	288.5
463.285	284.5
461.23	296
459.174	301
457.118	302
455.061	297.5
453.003	295
450.945	308.5
448.887	314.5
446.828	295.5
444.768	310.5
442.708	313
440.647	309
438.587	317
436.525	319.5
434.463	322
432.4	328.5
430.337	329
428.274	322
426.21	332.5
424.145	329
422.079	323.5
420.014	330.5
417.948	324.5
415.882	327
413.814	330
411.746	330
409.679	336
407.609	322
405.54	331
403.47	324.5
401.401	328
399.329	335
397.258	345
395.187	348.5
393.114	327
391.041	339
388.968	343
386.895	354.5
384.82	343.5
382.745	347
380.67	355
378.594	352
376.517	360.5
374.44	362.5
372.363	354.5
370.286	376.5
368.207	369
366.128	380.5
364.049	371.5
361.969	359
359.888	383
357.807	370.5
355.725	387
353.643	379
351.561	381
349.477	396
347.394	393
345.31	389
343.226	418.5
341.141	403.5
339.055	404.5
336.968	403
334.882	412
332.795	414.5
330.707	423.5
328.618	439
326.53	428.5
324.44	444
322.351	464
320.26	460.5
318.17	495.5
316.078	500.5
313.987	498
311.895	539
309.802	568
307.708	579.5
305.614	601
303.52	598
301.425	588.5
299.329	558
297.233	566.5
295.137	554.5
293.039	528
290.942	521.5
288.844	515
286.745	506.5
284.647	505.5
282.546	503
280.446	511.5
278.346	516
276.245	493
274.143	512.5
272.041	495
269.939	507.5
267.835	503
265.731	512
263.627	515
261.522	525
259.417	538.5
257.311	520.5
255.204	530.5
253.098	533
250.99	554.5
248.882	520.5
246.774	554.5
244.664	562.5
242.555	546
240.445	566
238.334	583.5
236.223	567
234.112	570.5
232	585.5
229.888	584.5
227.775	592.5
225.661	597
223.546	606
221.431	607
219.316	621
217.201	613
215.084	638
212.967	630
210.85	622
208.732	670.5
206.614	660.5
204.495	679
202.375	666
200.256	698
198.135	691
196.014	712
193.893	712
191.771	713
189.648	743.5
187.525	754.5
185.401	791.5
183.277	792
181.152	804.5
179.027	818.5
176.901	824
174.775	828
172.648	849.5
170.521	869
168.393	899
166.265	863.5
164.136	888
162.007	925
159.876	930
157.746	937
155.615	973.5
153.483	978
151.351	993.5
149.219	1016
147.086	1046.5
144.952	1084.5
142.818	1087.5
140.684	1115
138.548	1147.5
136.413	1172
134.276	1172
132.139	1246.5
130.002	1246.5
127.864	1284
125.725	1309.5
123.587	1337.5
121.447	1378
119.307	1420.5
117.166	1416
115.026	1467.5
112.885	1505
110.743	1528
108.6	1541
106.456	1584.5
104.313	1572.5
102.169	1556.5
100.023	1489.5
97.8789	1451.5
95.7328	1332
93.5869	1218.5
91.4392	1076
89.2919	954.5
87.1447	808
84.9959	680
