3528.51	200
3527.23	229.5
3525.95	230
3524.67	250.5
3523.39	257
3522.1	251.5
3520.82	267.5
3519.54	252
3518.26	256.5
3516.97	247.5
3515.69	244.5
3514.4	253
3513.12	270
3511.84	269
3510.55	263
3509.26	273.5
3507.98	281
3506.69	278
3505.41	267.5
3504.12	279
3502.83	291
3501.54	291
3500.26	279.5
3498.97	293.5
3497.68	294.5
3496.39	301
3495.1	308.5
3493.81	313
3492.52	334
3491.23	316.5
3489.94	332
3488.65	343
3487.36	335.5
3486.07	345
3484.78	362
3483.49	353.5
3482.19	347
3480.9	366
3479.61	377
3478.31	375
3477.02	393
3475.73	378
3474.43	376.5
3473.14	382
3471.84	386.5
3470.54	387.5
3469.25	373
3467.95	403.5
3466.66	387.5
3465.36	408.5
3464.06	392.5
3462.76	420
3461.46	403
3460.17	402
3458.87	404.5
3457.57	405.5
3456.27	432
3454.97	428
3453.67	422.5
3452.37	441
3451.07	433.5
3449.77	447.5
3448.47	460.5
3447.16	460.5
3445.86	462
3444.56	476
3443.26	473
3441.95	490.5
3440.65	500
3439.35	502
3438.04	523
3436.74	533
3435.43	520
3434.13	547
3432.82	538.5
3431.52	562.5
3430.21	562.5
3428.9	566.5
3427.6	577
3426.29	593.5
3424.98	605.5
3423.67	614
3422.36	603
3421.06	637
3419.75	625.5
3418.44	638.5
3417.13	654
3415.82	647.5
3414.51	663
3413.2	666.5
3411.88	671.5
3410.57	679.5
3409.26	691
3407.95	672
3406.64	687.5
3405.32	702.5
3404.01	698
3402.7	690.5
3401.38	717
3400.07	716
3398.75	724
3397.44	719.5
3396.12	739
3394.81	742.5
3393.49	768.5
3392.18	753.5
3390.86	773.5
3389.54	779.5
3388.23	776.5
3386.91	782.5
3385.59	771.5
3384.27	800.5
3382.95	792
3381.63	801.5
3380.31	817.5
3378.99	809.5
3377.67	823.5
3376.35	837
3375.03	843
3373.71	850.5
3372.39	851
3371.07	864.5
3369.75	843
3368.42	880.5
3367.1	888.5
3365.78	862
3364.45	870
3363.13	913
3361.81	894
3360.48	920
3359.16	928.5
3357.83	929.5
3356.51	957.5
3355.18	944
3353.85	934
3352.53	931
3351.2	954.5
3349.87	939
3348.54	954
3347.22	948.5
3345.89	970.5
3344.56	963
3343.23	976
3341.9	957.5
3340.57	964.5
3339.24	968
3337.91	983.5
3336.58	986
3335.25	986
3333.92	1008
3332.58	986
3331.25	989.5
3329.92	1021
3328.59	995.5
3327.25	1012
3325.92	1018.5
3324.58	1050
3323.25	1024.5
3321.92	1035
3320.58	1036.5
3319.25	1057
3317.91	1031.5
3316.57	1045
3315.24	1058
3313.9	1070
3312.56	1057
3311.23	1041.5
3309.89	1056.5
3308.55	1084
3307.21	1066
3305.87	1098.5
3304.53	1098
3303.19	1104
3301.85	1114.5
3300.51	1096
3299.17	1095
3297.83	1127
3296.49	1129
3295.15	1150.5
3293.81	1127
3292.46	1145
3291.12	1141.5
3289.78	1135
3288.43	1154
3287.09	1156.5
3285.75	1171.5
3284.4	1163.5
3283.06	1184.5
3281.71	1178.5
3280.37	1196.5
3279.02	1196.5
3277.67	1203
3276.33	1204
3274.98	1215
3273.63	1210.5
3272.28	1220
3270.94	1231
3269.59	1266.5
3268.24	1278
3266.89	1277.5
3265.54	1295.5
3264.19	1337
3262.84	1336.5
3261.49	1367.5
3260.14	1408.5
3258.79	1428.5
3257.44	1451.5
3256.08	1476
3254.73	1513.5
3253.38	1547.5
3252.03	1596
3250.67	1630.5
3249.32	1665
3247.96	1698.5
3246.61	1756
3245.26	1800.5
3243.9	1869.5
3242.54	1900.5
3241.19	1909.5
3239.83	1996
3238.48	2045.5
3237.12	2088
3235.76	2127.5
3234.41	2181.5
3233.05	2205.5
3231.69	2265.5
3230.33	2319
3228.97	2360
3227.61	2379.5
3226.25	2418.5
3224.89	2469
3223.53	2482
3222.17	2523
3220.81	2542
3219.45	2598.5
3218.09	2626.5
3216.72	2628.5
3215.36	2650
3214	2694
3212.63	2696
3211.27	2708
3209.91	2764
3208.54	2780
3207.18	2765.5
3205.81	2771
3204.45	2836.5
3203.08	2812.5
3201.71	2807
3200.35	2830.5
3198.98	2887.5
3197.61	2900.5
3196.25	2915.5
3194.88	2910.5
3193.51	2956
3192.14	2980.5
3190.77	2934.5
3189.4	2969
3188.03	3021.5
3186.66	2990.5
3185.29	3050.5
3183.92	3035.5
3182.55	3082.5
3181.18	3067.5
3179.81	3100
3178.44	3147.5
3177.06	3158
3175.69	3164.5
3174.32	3171
3172.94	3222.5
3171.57	3269.5
3170.2	3248
3168.82	3317.5
3167.45	3300
3166.07	3368
3164.69	3362
3163.32	3373.5
3161.94	3385
3160.56	3430.5
3159.19	3477.5
3157.81	3458.5
3156.43	3468.5
3155.05	3553
3153.67	3567
3152.3	3608
3150.92	3664.5
3149.54	3629
3148.16	3669
3146.78	3683
3145.4	3695
3144.01	3740.5
3142.63	3723
3141.25	3729
3139.87	3773.5
3138.49	3799.5
3137.1	3849.5
3135.72	3850.5
3134.34	3901.5
3132.95	3927.5
3131.57	3916.5
3130.18	3976
3128.8	4033.5
3127.41	4037.5
3126.03	4048
3124.64	4056.5
3123.25	4134
3121.87	4175.5
3120.48	4149
3119.09	4181
3117.7	4218
3116.32	4219.5
3114.93	4271.5
3113.54	4267
3112.15	4298.5
3110.76	4325.5
3109.37	4245.5
3107.98	4336
3106.59	4381.5
3105.2	4392.5
3103.8	4375
3102.41	4393.5
3101.02	4437.5
3099.63	4454.5
3098.23	4490
3096.84	4472
3095.45	4468
3094.05	4508
3092.66	4487
3091.26	4555.5
3089.87	4548
3088.47	4583
3087.08	4567.5
3085.68	4577
3084.28	4607.5
3082.89	4629
3081.49	4597.5
3080.09	4605.5
3078.69	4640.5
3077.3	4630.5
3075.9	4700
3074.5	4687.5
3073.1	4716
3071.7	4689
3070.3	4735
3068.9	4728.5
3067.5	4711.5
3066.09	4741
3064.69	4804
3063.29	4770.5
3061.89	4826
3060.48	4788
3059.08	4813.5
3057.68	4881.5
3056.27	4835.5
3054.87	4870
3053.46	4912
3052.06	4884.5
3050.65	4928
3049.25	4967.5
3047.84	4972
3046.44	4968.5
3045.03	5021
3043.62	5010
3042.21	5017.5
3040.81	5028
3039.4	5052.5
3037.99	5051
3036.58	5061.5
3035.17	5104
3033.76	5083.5
3032.35	5072.5
3030.94	5127
3029.53	5122.5
3028.12	5153.5
3026.71	5141
3025.29	5181
3023.88	5103.5
3022.47	5132
3021.06	5171
3019.64	5118.5
3018.23	5116.5
3016.82	5143
3015.4	5161.5
3013.99	5164.5
3012.57	5237.5
3011.15	5192.5
3009.74	5180
3008.32	5179
3006.91	5217
3005.49	5267
3004.07	5282
3002.65	5256
3001.24	5266.5
2999.82	5289
2998.4	5352.5
2996.98	5331
2995.56	5357.5
2994.14	5385
2992.72	5416.5
2991.3	5440
2989.88	5514
2988.46	5510.5
2987.03	5522
2985.61	5550.5
2984.19	5629
2982.77	5596.5
2981.34	5638
2979.92	5647.5
2978.49	5670.5
2977.07	5738
2975.65	5777
2974.22	5736.5
2972.79	5755.5
2971.37	5763
2969.94	5797
2968.52	5827.5
2967.09	5841
2965.66	5839
2964.23	5867.5
2962.81	5907
2961.38	5887
2959.95	5923
2958.52	5948.5
2957.09	5944
2955.66	5914
2954.23	5955.5
2952.8	5999
2951.37	5963.5
2949.94	6009
2948.5	5960.5
2947.07	5983.5
2945.64	6021.5
2944.21	5993
2942.77	6042
2941.34	6014
2939.91	6018
2938.47	6025.5
2937.04	6058
2935.6	6141
2934.17	6082.5
2932.73	6155
2931.29	6201.5
2929.86	6187.5
2928.42	6197
2926.98	6174
2925.55	6174.5
2924.11	6262.5
2922.67	6222.5
2921.23	6211
2919.79	6229
2918.35	6265.5
2916.91	6309
2915.47	6298
2914.03	6286.5
2912.59	6354
2911.15	6286.5
2909.71	6334.5
2908.26	6345.5
2906.82	6326.5
2905.38	6327
2903.94	6394.5
2902.49	6420.5
2901.05	6354.5
2899.6	6376
2898.16	6385.5
2896.71	6388.5
2895.27	6347.5
2893.82	6393.5
2892.38	6436.5
2890.93	6463
2889.48	6419
2888.03	6439.5
2886.59	6449.5
2885.14	6457.5
2883.69	6462
2882.24	6537.5
2880.79	6474.5
2879.34	6463
2877.89	6491.5
2876.44	6529.5
2874.99	6557
2873.54	6478
2872.09	6471.5
2870.64	6490.5
2869.18	6482.5
2867.73	6474.5
2866.28	6510
2864.83	6519.5
2863.37	6489.5
2861.92	6536.5
2860.46	6478
2859.01	6506.5
2857.55	6501.5
2856.1	6518
2854.64	6517
2853.19	6533.5
2851.73	6483.5
2850.27	6507.5
2848.81	6547.5
2847.36	6537
2845.9	6525
2844.44	6444
2842.98	6521
2841.52	6514
2840.06	6501
2838.6	6531
2837.14	6484.5
2835.68	6449
2834.22	6580
2832.76	6448
2831.3	6514
2829.83	6521.5
2828.37	6509
2826.91	6581.5
2825.44	6495
2823.98	6538.5
2822.52	6511.5
2821.05	6457.5
2819.59	6496
2818.12	6460
2816.66	6456.5
2815.19	6417
2813.72	6404
2812.26	6472
2810.79	6384.5
2809.32	6389.5
2807.85	6427
2806.38	6389
2804.92	6405.5
2803.45	6393
2801.98	6415
2800.51	6460.5
2799.04	6464.5
2797.57	6435
2796.1	6425.5
2794.62	6421.5
2793.15	6428.5
2791.68	6436
2790.21	6418.5
2788.73	6458
2787.26	6426.5
2785.79	6395.5
2784.31	6444
2782.84	6469.5
2781.36	6458
2779.89	6461
2778.41	6451.5
2776.94	6527.5
2775.46	6559.5
2773.99	6534.5
2772.51	6503.5
2771.03	6492
2769.55	6615
2768.07	6584
2766.6	6523.5
2765.12	6631.5
2763.64	6610
2762.16	6625.5
2760.68	6567.5
2759.2	6594
2757.72	6593.5
2756.24	6551.5
2754.75	6591
2753.27	6610.5
2751.79	6595
2750.31	6582.5
2748.82	6583
2747.34	6590.5
2745.86	6556
2744.37	6548
2742.89	6544
2741.4	6550.5
2739.92	6561.5
2738.43	6514.5
2736.94	6539.5
2735.46	6529
2733.97	6467
2732.48	6557.5
2731	6491.5
2729.51	6468
2728.02	6467.5
2726.53	6446
2725.04	6506
2723.55	6522.5
2722.06	6447.5
2720.57	6503.5
2719.08	6515
2717.59	6540.5
2716.1	6537.5
2714.61	6575
2713.11	6517.5
2711.62	6549.5
2710.13	6585
2708.64	6477
2707.14	6491
2705.65	6492
2704.15	6462.5
2702.66	6481
2701.16	6425
2699.67	6460.5
2698.17	6426
2696.67	6387.5
2695.18	6432.5
2693.68	6388.5
2692.18	6395
2690.69	6414
2689.19	6368
2687.69	6334.5
2686.19	6296.5
2684.69	6337.5
2683.19	6316.5
2681.69	6343.5
2680.19	6278.5
2678.69	6194
2677.19	6277
2675.68	6263.5
2674.18	6286
2672.68	6319
2671.18	6260.5
2669.67	6243
2668.17	6262
2666.66	6220.5
2665.16	6161
2663.66	6220.5
2662.15	6230
2660.64	6215.5
2659.14	6231.5
2657.63	6202.5
2656.13	6189
2654.62	6204
2653.11	6204.5
2651.6	6145
2650.09	6082.5
2648.58	6207.5
2647.08	6164
2645.57	6115.5
2644.06	6096.5
2642.55	6097
2641.04	6060
2639.52	6059.5
2638.01	6109
2636.5	6055.5
2634.99	6031.5
2633.48	5978
2631.96	6023
2630.45	5976.5
2628.94	5971
2627.42	5919.5
2625.91	5918
2624.39	5935.5
2622.88	5903.5
2621.36	5930
2619.85	5931.5
2618.33	5910
2616.81	5913.5
2615.3	5912
2613.78	5871.5
2612.26	5934.5
2610.74	5894
2609.22	5853
2607.7	5914.5
2606.18	5851
2604.66	5832.5
2603.14	5826.5
2601.62	5811.5
2600.1	5794
2598.58	5710
2597.06	5754.5
2595.54	5730
2594.01	5659
2592.49	5659.5
2590.97	5623
2589.44	5674.5
2587.92	5621.5
2586.39	5610.5
2584.87	5652.5
2583.34	5662
2581.82	5627.5
2580.29	5607.5
2578.76	5612.5
2577.24	5616
2575.71	5602.5
2574.18	5597
2572.65	5588.5
2571.13	5599.5
2569.6	5605.5
2568.07	5588.5
2566.54	5605.5
2565.01	5615.5
2563.48	5577.5
2561.95	5534
2560.42	5537
2558.88	5514.5
2557.35	5471
2555.82	5538.5
2554.29	5494
2552.75	5472.5
2551.22	5476
2549.69	5471.5
2548.15	5471.5
2546.62	5398.5
2545.08	5451
2543.55	5422
2542.01	5428
2540.47	5350
2538.94	5331
2537.4	5329
2535.86	5346
2534.33	5315
2532.79	5325.5
2531.25	5285.5
2529.71	5292.5
2528.17	5252
2526.63	5278.5
2525.09	5217.5
2523.55	5220
2522.01	5224
2520.47	5168
2518.92	5159.5
2517.38	5175
2515.84	5101
2514.3	5127
2512.75	5132.5
2511.21	5115.5
2509.67	5120
2508.12	5045
2506.58	5074
2505.03	5051.5
2503.49	5004
2501.94	5003
2500.39	5025.5
2498.85	4978
2497.3	4972
2495.75	4957
2494.2	4920
2492.65	4922.5
2491.11	4886
2489.56	4881
2488.01	4847
2486.46	4878.5
2484.91	4788
2483.36	4814.5
2481.8	4797
2480.25	4796.5
2478.7	4841
2477.15	4762
2475.6	4762.5
2474.04	4719.5
2472.49	4716.5
2470.93	4657
2469.38	4648
2467.83	4635.5
2466.27	4647.5
2464.71	4625.5
2463.16	4569.5
2461.6	4626.5
2460.05	4619
2458.49	4561.5
2456.93	4530
2455.37	4545.5
2453.81	4499.5
2452.26	4515.5
2450.7	4428
2449.14	4446.5
2447.58	4448
2446.02	4441
2444.46	4425
2442.9	4361.5
2441.33	4343
2439.77	4370.5
2438.21	4353.5
2436.65	4364.5
2435.08	4323.5
2433.52	4299
2431.96	4261.5
2430.39	4277.5
2428.83	4307.5
2427.26	4335
2425.7	4279
2424.13	4305
2422.56	4235
2421	4280
2419.43	4208.5
2417.86	4174
2416.3	4225.5
2414.73	4147.5
2413.16	4239
2411.59	4199
2410.02	4151
2408.45	4185.5
2406.88	4189
2405.31	4131.5
2403.74	4130
2402.17	4169
2400.6	4131
2399.02	4142.5
2397.45	4166.5
2395.88	4127
2394.3	4102.5
2392.73	4105.5
2391.16	4097
2389.58	4106.5
2388.01	4068.5
2386.43	4075
2384.86	4000
2383.28	4025
2381.7	4071
2380.13	4052.5
2378.55	4037.5
2376.97	4024.5
2375.39	4010.5
2373.81	3998
2372.23	4001
2370.65	4009
2369.07	3957.5
2367.49	3957.5
2365.91	3947.5
2364.33	3938.5
2362.75	3902
2361.17	3912.5
2359.59	3898.5
2358.01	3945.5
2356.42	3876
2354.84	3895.5
2353.25	3891
2351.67	3886.5
2350.09	3880.5
2348.5	3891.5
2346.92	3888
2345.33	3877
2343.74	3852.5
2342.16	3836
2340.57	3888
2338.98	3799
2337.39	3797.5
2335.81	3775.5
2334.22	3762
2332.63	3774.5
2331.04	3730.5
2329.45	3730.5
2327.86	3766.5
2326.27	3757.5
2324.68	3725.5
2323.09	3750.5
2321.49	3705
2319.9	3695
2318.31	3688
2316.72	3693.5
2315.12	3693
2313.53	3658
2311.93	3626
2310.34	3594
2308.74	3575.5
2307.15	3615.5
2305.55	3623
2303.96	3593
2302.36	3514.5
2300.76	3538
2299.17	3506
2297.57	3481
2295.97	3508
2294.37	3483.5
2292.77	3479
2291.17	3431
2289.57	3439.5
2287.97	3462.5
2286.37	3501.5
2284.77	3453
2283.17	3440
2281.57	3436
2279.96	3441.5
2278.36	3425.5
2276.76	3415.5
2275.15	3389
2273.55	3393
2271.95	3344.5
2270.34	3352.5
2268.74	3335
2267.13	3316.5
2265.52	3308
2263.92	3293.5
2262.31	3272.5
2260.7	3267.5
2259.1	3289.5
2257.49	3246
2255.88	3264.5
2254.27	3252.5
2252.66	3279.5
2251.05	3242.5
2249.44	3273.5
2247.83	3212
2246.22	3238.5
2244.61	3242.5
2243	3195
2241.39	3189
2239.77	3188.5
2238.16	3142.5
2236.55	3128.5
2234.93	3129
2233.32	3115.5
2231.7	3098
2230.09	3047.5
2228.47	3050
2226.86	3017
2225.24	3068
2223.63	3028
2222.01	2998.5
2220.39	3004.5
2218.77	2989
2217.16	2994.5
2215.54	2926
2213.92	2981
2212.3	3002
2210.68	2986
2209.06	2954.5
2207.44	2939
2205.82	2924
2204.19	2927.5
2202.57	2904.5
2200.95	2927.5
2199.33	2930.5
2197.7	2877
2196.08	2892
2194.46	2877.5
2192.83	2911
2191.21	2881.5
2189.58	2867
2187.96	2877.5
2186.33	2874
2184.7	2837
2183.08	2830
2181.45	2779
2179.82	2775.5
2178.19	2770
2176.57	2773.5
2174.94	2744.5
2173.31	2777
2171.68	2758.5
2170.05	2698
2168.42	2747
2166.79	2711.5
2165.16	2693
2163.52	2652
2161.89	2669
2160.26	2654.5
2158.63	2660
2156.99	2642.5
2155.36	2642
2153.73	2604.5
2152.09	2601.5
2150.46	2600
2148.82	2562
2147.18	2590.5
2145.55	2569
2143.91	2551.5
2142.27	2536
2140.64	2546
2139	2553
2137.36	2530
2135.72	2504.5
2134.08	2504.5
2132.44	2485
2130.8	2466
2129.16	2446
2127.52	2417
2125.88	2433
2124.24	2449.5
2122.6	2403.5
2120.95	2378.5
2119.31	2390.5
2117.67	2368
2116.02	2390.5
2114.38	2357
2112.74	2376.5
2111.09	2319.5
2109.45	2349.5
2107.8	2347
2106.15	2309.5
2104.51	2327
2102.86	2325
2101.21	2305
2099.56	2274.5
2097.92	2292
2096.27	2289
2094.62	2260.5
2092.97	2263.5
2091.32	2280
2089.67	2246
2088.02	2257.5
2086.37	2244.5
2084.72	2265
2083.06	2251.5
2081.41	2238.5
2079.76	2238
2078.1	2213
2076.45	2199
2074.8	2194
2073.14	2179
2071.49	2187.5
2069.83	2195.5
2068.18	2191.5
2066.52	2177
2064.86	2189.5
2063.21	2169
2061.55	2160.5
2059.89	2150.5
2058.23	2129.5
2056.57	2123.5
2054.92	2131
2053.26	2132
2051.6	2112
2049.94	2088.5
2048.27	2102
2046.61	2085.5
2044.95	2065.5
2043.29	2079.5
2041.63	2050.5
2039.97	2031.5
2038.3	2029.5
2036.64	2026.5
2034.97	2004.5
2033.31	1980
2031.64	1965
2029.98	1991
2028.31	1942.5
2026.65	1943
2024.98	1946.5
2023.31	1936.5
2021.65	1936.5
2019.98	1898.5
2018.31	1931
2016.64	1930
2014.97	1889.5
2013.3	1927.5
2011.63	1896
2009.96	1866
2008.29	1880.5
2006.62	1869.5
2004.95	1839.5
2003.28	1852
2001.6	1874.5
1999.93	1814.5
1998.26	1847
1996.58	1835.5
1994.91	1814
1993.24	1828.5
1991.56	1828
1989.89	1815
1988.21	1812
1986.53	1811.5
1984.86	1812.5
1983.18	1788
1981.5	1770
1979.82	1774.5
1978.15	1767
1976.47	1737.5
1974.79	1743.5
1973.11	1695
1971.43	1730
1969.75	1745.5
1968.07	1707.5
1966.38	1691.5
1964.7	1717
1963.02	1686
1961.34	1692
1959.66	1700.5
1957.97	1677.5
1956.29	1666.5
1954.6	1669.5
1952.92	1659.5
1951.23	1638
1949.55	1611
1947.86	1629.5
1946.18	1613.5
1944.49	1627
1942.8	1620.5
1941.11	1584
1939.43	1605.5
1937.74	1592
1936.05	1576.5
1934.36	1590.5
1932.67	1559
1930.98	1548.5
1929.29	1555.5
1927.6	1542
1925.91	1547
1924.21	1513
1922.52	1512
1920.83	1520
1919.14	1529.5
1917.44	1503
1915.75	1501.5
1914.05	1522.5
1912.36	1520.5
1910.66	1495
1908.97	1480.5
1907.27	1499.5
1905.58	1463
1903.88	1450.5
1902.18	1439
1900.48	1440
1898.79	1431
1897.09	1438.5
1895.39	1415.5
1893.69	1402
1891.99	1403
1890.29	1371.5
1888.59	1368.5
1886.89	1387
1885.18	1363.5
1883.48	1348
1881.78	1349
1880.08	1314
1878.37	1349
1876.67	1329.5
1874.96	1314
1873.26	1322.5
1871.55	1323.5
1869.85	1319.5
1868.14	1322
1866.44	1283.5
1864.73	1298.5
1863.02	1278.5
1861.32	1269.5
1859.61	1278
1857.9	1286.5
1856.19	1273
1854.48	1252.5
1852.77	1269.5
1851.06	1261
1849.35	1259.5
1847.64	1248.5
1845.93	1245.5
1844.21	1243
1842.5	1212
1840.79	1237.5
1839.08	1184
1837.36	1200
1835.65	1234
1833.93	1175.5
1832.22	1171.5
1830.5	1175
1828.79	1195
1827.07	1185.5
1825.36	1151.5
1823.64	1170
1821.92	1140.5
1820.2	1151.5
1818.48	1124
1816.77	1156.5
1815.05	1120.5
1813.33	1117
1811.61	1132
1809.89	1119
1808.16	1116
1806.44	1089.5
1804.72	1116.5
1803	1080
1801.28	1089.5
1799.55	1058
1797.83	1064
1796.11	1087.5
1794.38	1092.5
1792.66	1041.5
1790.93	1057
1789.21	1065
1787.48	1054
1785.75	1054
1784.03	1023.5
1782.3	1036
1780.57	1047.5
1778.84	1015
1777.11	1024.5
1775.38	1042
1773.66	1029.5
1771.93	1000.5
1770.19	1004
1768.46	1020.5
1766.73	1007
1765	992.5
1763.27	1019
1761.54	1005.5
1759.8	991.5
1758.07	995.5
1756.34	986
1754.6	999.5
1752.87	1009
1751.13	959
1749.4	992
1747.66	977
1745.92	973.5
1744.19	977.5
1742.45	963
1740.71	977.5
1738.97	962.5
1737.23	960.5
1735.49	957.5
1733.75	956.5
1732.01	967.5
1730.27	936
1728.53	946.5
1726.79	926.5
1725.05	933
1723.31	930.5
1721.57	900.5
1719.82	902
1718.08	911
1716.34	892.5
1714.59	893
1712.85	920.5
1711.1	901
1709.36	876
1707.61	896.5
1705.86	883
1704.12	895
1702.37	857
1700.62	882
1698.87	854.5
1697.12	857
1695.37	857
1693.62	847.5
1691.87	816
1690.12	840
1688.37	835.5
1686.62	815
1684.87	829
1683.12	814.5
1681.36	820.5
1679.61	825.5
1677.86	800
1676.1	809.5
1674.35	806
1672.59	787.5
1670.84	776.5
1669.08	786
1667.33	805.5
1665.57	786
1663.81	793
1662.06	790
1660.3	790
1658.54	783.5
1656.78	788
1655.02	770
1653.26	768.5
1651.5	778.5
1649.74	764.5
1647.98	757.5
1646.22	752.5
1644.46	747.5
1642.7	739.5
1640.93	739.5
1639.17	735.5
1637.41	732
1635.64	726
1633.88	735.5
1632.11	717.5
1630.35	736
1628.58	718.5
1626.81	709.5
1625.05	728
1623.28	706
1621.51	709
1619.75	692
1617.98	698
1616.21	708
1614.44	707
1612.67	685
1610.9	694.5
1609.13	684.5
1607.36	670.5
1605.58	685.5
1603.81	682
1602.04	670.5
1600.27	673.5
1598.49	672.5
1596.72	675
1594.95	655
1593.17	648
1591.4	664
1589.62	666.5
1587.84	654.5
1586.07	639.5
1584.29	656
1582.51	643
1580.74	650
1578.96	629.5
1577.18	643
1575.4	640.5
1573.62	630
1571.84	626.5
1570.06	619.5
1568.28	626
1566.5	609
1564.72	607
1562.93	613
1561.15	619
1559.37	600.5
1557.58	613.5
1555.8	620
1554.02	588.5
1552.23	593.5
1550.45	603.5
1548.66	589
1546.87	579
1545.09	584
1543.3	572
1541.51	573.5
1539.72	578.5
1537.94	566.5
1536.15	566
1534.36	579.5
1532.57	559
1530.78	551.5
1528.99	557
1527.2	546.5
1525.4	550
1523.61	551
1521.82	516
1520.03	543
1518.23	544.5
1516.44	544.5
1514.65	547.5
1512.85	519.5
1511.06	558
1509.26	517.5
1507.46	541
1505.67	527
1503.87	528.5
1502.07	529.5
1500.28	529
1498.48	533.5
1496.68	513.5
1494.88	515
1493.08	516
1491.28	502.5
1489.48	508
1487.68	511
1485.88	510.5
1484.08	505.5
1482.27	498.5
1480.47	498.5
1478.67	514.5
1476.86	489
1475.06	500.5
1473.25	503
1471.45	476.5
1469.64	484.5
1467.84	475
1466.03	473.5
1464.23	468.5
1462.42	470.5
1460.61	477.5
1458.8	477.5
1456.99	468.5
1455.18	457
1453.37	464
1451.56	471.5
1449.75	460.5
1447.94	468
1446.13	474.5
1444.32	467.5
1442.51	456.5
1440.7	468
1438.88	461
1437.07	450.5
1435.26	450
1433.44	450
1431.63	432
1429.81	438
1427.99	432
1426.18	432.5
1424.36	438
1422.54	436
1420.73	423.5
1418.91	424
1417.09	438.5
1415.27	409.5
1413.45	416
1411.63	416
1409.81	426
1407.99	422
1406.17	427.5
1404.35	412.5
1402.53	416
1400.7	410
1398.88	413.5
1397.06	419
1395.23	418
1393.41	421.5
1391.58	404
1389.76	407
1387.93	403
1386.11	399
1384.28	409
1382.45	396
1380.62	398.5
1378.8	388
1376.97	396
1375.14	387
1373.31	383.5
1371.48	386.5
1369.65	383.5
1367.82	394
1365.99	397.5
1364.16	372.5
1362.32	376.5
1360.49	370
1358.66	372
1356.82	373.5
1354.99	364
1353.16	373.5
1351.32	358.5
1349.48	367.5
1347.65	354
1345.81	354.5
1343.98	357
1342.14	359.5
1340.3	360
1338.46	330.5
1336.62	350.5
1334.79	346
1332.95	340
1331.11	344
1329.27	345
1327.42	338.5
1325.58	327.5
1323.74	351
1321.9	340.5
1320.06	328
1318.21	314.5
1316.37	330
1314.53	331.5
1312.68	329.5
1310.84	336.5
1308.99	337.5
1307.15	326.5
1305.3	318.5
1303.45	324
1301.61	319
1299.76	330
1297.91	320
1296.06	315
1294.21	313
1292.36	324
1290.51	324
1288.66	306
1286.81	308.5
1284.96	311.5
1283.11	308
1281.26	308.5
1279.4	301.5
1277.55	305
1275.7	293.5
1273.84	300
1271.99	294.5
1270.13	283
1268.28	274
1266.42	290
1264.56	300
1262.71	304.5
1260.85	283.5
1258.99	295
1257.13	284
1255.27	279
1253.41	282.5
1251.56	275
1249.7	282
1247.83	279.5
1245.97	276.5
1244.11	283
1242.25	279
1240.39	270.5
1238.52	259
1236.66	268.5
1234.8	271.5
1232.93	278
1231.07	272.5
1229.2	271.5
1227.34	271
1225.47	266
1223.6	257.5
1221.74	259
1219.87	273.5
1218	270
1216.13	261.5
1214.26	257.5
1212.39	256
1210.53	259
1208.65	258
1206.78	250.5
1204.91	243
1203.04	251.5
1201.17	246
1199.3	244
1197.42	246.5
1195.55	249
1193.68	240.5
1191.8	228
1189.93	245.5
1188.05	237
1186.17	237.5
1184.3	231
1182.42	245
1180.54	225
1178.67	235
1176.79	225.5
1174.91	236.5
1173.03	244.5
1171.15	227.5
1169.27	219
1167.39	227
1165.51	227.5
1163.63	226
1161.75	224
1159.86	222
1157.98	234
1156.1	222.5
1154.21	218
1152.33	221.5
1150.44	219.5
1148.56	223.5
1146.67	220.5
1144.79	216
1142.9	224.5
1141.01	230
1139.12	227.5
1137.24	232
1135.35	215
1133.46	218
1131.57	215
1129.68	223
1127.79	220
1125.9	217.5
1124.01	212.5
1122.12	219.5
1120.22	212
1118.33	208.5
1116.44	216
1114.54	212
1112.65	197
1110.75	207.5
1108.86	210
1106.96	208
1105.07	203.5
1103.17	202.5
1101.27	209.5
1099.38	197.5
1097.48	198.5
1095.58	200.5
1093.68	188.5
1091.78	192
1089.88	195
1087.98	187.5
1086.08	198
1084.18	195.5
1082.28	189
1080.38	189.5
1078.47	176.5
1076.57	187.5
1074.67	193
1072.76	191.5
1070.86	185
1068.95	180.5
1067.05	174.5
1065.14	190
1063.24	186
1061.33	181
1059.42	172
1057.51	169.5
1055.6	177
1053.7	186
1051.79	180.5
1049.88	174.5
1047.97	172
1046.06	175.5
1044.14	184.5
1042.23	177.5
1040.32	180
1038.41	173
1036.5	188.5
1034.58	182.5
1032.67	167
1030.75	176
1028.84	179.5
1026.92	179
1025.01	177.5
1023.09	183
1021.17	178.5
1019.26	183
1017.34	185
1015.42	188
1013.5	191.5
1011.58	183.5
1009.66	188
1007.74	181
1005.82	182
1003.9	195.5
1001.98	192
1000.06	194.5
998.134	191.5
996.212	211.5
994.288	185.5
992.364	211
990.44	214.5
988.515	241
986.589	231.5
984.663	257.5
982.737	243
980.81	249.5
978.883	262
976.955	250.5
975.027	239.5
973.098	266.5
971.169	242
969.239	242
967.308	251
965.378	254
963.447	257
961.516	254
959.583	259
957.65	263
955.718	271
953.784	265.5
951.85	269
949.916	266
947.981	263.5
946.045	283
944.109	288
942.173	277.5
940.236	291
938.298	274
936.36	259
934.422	260.5
932.484	249
930.544	218
928.604	197
926.664	201
924.724	176.5
922.782	175.5
920.84	153
918.898	168
916.955	165
915.012	167
913.068	160.5
911.124	160.5
909.18	161
907.235	157
905.289	152
903.343	161
901.397	152
899.45	152.5
897.502	152
895.554	154.5
893.605	157
891.657	159
889.707	153.5
887.758	152
885.807	150.5
883.856	157.5
881.905	147
879.953	142.5
878.001	149
876.048	158
874.094	156
872.14	154
870.186	145
868.232	142
866.276	152
864.321	147.5
862.365	170
860.408	146
858.451	145
856.493	152.5
854.535	147.5
852.576	143
850.617	137.5
848.658	145
846.698	144.5
844.737	142
842.776	136
840.814	145.5
838.852	143.5
836.89	140.5
834.927	152
832.963	137
830.999	136.5
829.035	134.5
827.07	132
825.105	148
823.139	134.5
821.172	139.5
819.206	141
817.238	137
815.27	139.5
813.301	138
811.333	144.5
809.363	138
807.394	139.5
805.424	138.5
803.453	129.5
801.482	133
799.509	135
797.538	134.5
795.565	135
793.592	130
791.618	127
789.643	130.5
787.669	130.5
785.693	132
783.718	128
781.742	126
779.765	132.5
777.788	120.5
775.811	128.5
773.832	135.5
771.853	118
769.875	123
767.895	117.5
765.915	122
763.934	127.5
761.953	110.5
759.972	119
757.99	126
756.007	123.5
754.024	126
752.041	124
750.056	122
748.072	116.5
746.087	122
744.102	118.5
742.116	122.5
740.13	138.5
738.143	116
736.155	124
734.167	113
732.179	123
730.19	117
728.2	115.5
726.21	116
724.22	119
722.229	113
720.237	118
718.246	118
716.253	123.5
714.26	118
712.267	113.5
710.273	112.5
708.279	118.5
706.284	116
704.289	121
702.293	121
700.296	117.5
698.3	124.5
696.303	124
694.305	117
692.307	119
690.307	117
688.308	125
686.309	125.5
684.308	128
682.308	132.5
680.306	130.5
678.304	120.5
676.302	129.5
674.3	129
672.296	138
670.293	134
668.289	140
666.284	130.5
664.278	134
662.273	135
660.266	137.5
658.26	139
656.252	137.5
654.244	136
652.237	133
650.227	136.5
648.218	135.5
646.209	134.5
644.198	128
642.188	137.5
640.177	135
638.165	143
636.153	135.5
634.14	133.5
632.128	147.5
630.113	135
628.099	138
626.085	143
624.07	145
622.054	147.5
620.038	143
618.021	142
616.004	137.5
613.986	133
611.968	132.5
609.949	130
607.93	129.5
605.911	129.5
603.891	128
601.87	126.5
599.848	126
597.827	124.5
595.805	128
593.782	123.5
591.759	132.5
589.735	126
587.711	129
585.687	125.5
583.661	128
581.636	131.5
579.609	138
577.583	125.5
575.555	136
573.527	128.5
571.5	142
569.471	141
567.441	144
565.412	144.5
563.382	145.5
561.351	156
559.32	145
557.289	152
555.257	158.5
553.223	162
551.19	167.5
549.157	171
547.122	186.5
545.088	193.5
543.053	203.5
541.017	224.5
538.981	265.5
536.943	309.5
534.907	396
532.869	525
530.831	789.5
528.792	1156
526.752	1861.5
524.713	2863
522.673	3709.5
520.632	3795.5
518.591	3101
516.549	2168.5
514.507	1397.5
512.464	903
510.42	579
508.377	427
506.332	315
504.288	253.5
502.242	230
500.196	212
498.15	202
496.104	189.5
494.056	188.5
492.008	176
489.96	175.5
487.911	163.5
485.862	158.5
483.812	162
481.761	158
479.71	159.5
477.659	146
475.607	158
473.555	163
471.502	139
469.448	143
467.395	136.5
465.34	135
463.285	142.5
461.23	128.5
459.174	135.5
457.118	135.5
455.061	131
453.003	138.5
450.945	131.5
448.887	144
446.828	139
444.768	145
442.708	146
440.647	147
438.587	156
436.525	159.5
434.463	149
432.4	153.5
430.337	154.5
428.274	150.5
426.21	170
424.145	153.5
422.079	159
420.014	152.5
417.948	157.5
415.882	154.5
413.814	162.5
411.746	150
409.679	151.5
407.609	156
405.54	154.5
403.47	148
401.401	160
399.329	156.5
397.258	154
395.187	160.5
393.114	152
391.041	147
388.968	161.5
386.895	158
384.82	161
382.745	153.5
380.67	163
378.594	157.5
376.517	158
374.44	157
372.363	170
370.286	158
368.207	166.5
366.128	157.5
364.049	165.5
361.969	170
359.888	159.5
357.807	170
355.725	154.5
353.643	164
351.561	162.5
349.477	173.5
347.394	173
345.31	171.5
343.226	174.5
341.141	173
339.055	179
336.968	180.5
334.882	179.5
332.795	182
330.707	193.5
328.618	191
326.53	190.5
324.44	201
322.351	208.5
320.26	206
318.17	218.5
316.078	222
313.987	237.5
311.895	260
309.802	264
307.708	273
305.614	288
303.52	292
301.425	270.5
299.329	266.5
297.233	255.5
295.137	240.5
293.039	240
290.942	217
288.844	211.5
286.745	202.5
284.647	194
282.546	184.5
280.446	188.5
278.346	186.5
276.245	179
274.143	174
272.041	174
269.939	175.5
267.835	161
265.731	167
263.627	170
261.522	159
259.417	163.5
257.311	154
255.204	157
253.098	162
250.99	161
248.882	165.5
246.774	155.5
244.664	157.5
242.555	155
240.445	154.5
238.334	155
236.223	158.5
234.112	154
232	150
229.888	153.5
227.775	155
225.661	149
223.546	153.5
221.431	150
219.316	147.5
217.201	146.5
215.084	149
212.967	136.5
210.85	141.5
208.732	136.5
206.614	149
204.495	146.5
202.375	146.5
200.256	130
198.135	143.5
196.014	146
193.893	134
191.771	145
189.648	148
187.525	140.5
185.401	148
183.277	141
181.152	145
179.027	146.5
176.901	146.5
174.775	157
172.648	164.5
170.521	152.5
168.393	166.5
166.265	162
164.136	165
162.007	175.5
159.876	160
157.746	181
155.615	170
153.483	178
151.351	175
149.219	189.5
147.086	181.5
144.952	184
142.818	200
140.684	200
138.548	203.5
136.413	212
134.276	223
132.139	223
130.002	231.5
127.864	233
125.725	243.5
123.587	254
121.447	244
119.307	268.5
117.166	271
115.026	272
112.885	275
110.743	284
108.6	296
106.456	294
104.313	282
102.169	283
100.023	285.5
97.8789	260.5
95.7328	246
93.5869	234
91.4392	207
89.2919	169
87.1447	135
84.9959	106.5
