3528.51	209.5
3527.23	224.5
3525.95	233.5
3524.67	250
3523.39	251
3522.1	249.5
3520.82	245
3519.54	251
3518.26	253.5
3516.97	249
3515.69	244.5
3514.4	247
3513.12	261.5
3511.84	262.5
3510.55	255.5
3509.26	268
3507.98	272.5
3506.69	267.5
3505.41	255
3504.12	258
3502.83	290
3501.54	280.5
3500.26	281
3498.97	282
3497.68	283
3496.39	299
3495.1	300
3493.81	303
3492.52	318
3491.23	308
3489.94	315
3488.65	319
3487.36	333
3486.07	329.5
3484.78	323
3483.49	343
3482.19	341
3480.9	340
3479.61	359.5
3478.31	361.5
3477.02	351
3475.73	367
3474.43	364.5
3473.14	384
3471.84	384.5
3470.54	376
3469.25	375.5
3467.95	380.5
3466.66	396
3465.36	383.5
3464.06	381
3462.76	391.5
3461.46	383
3460.17	398.5
3458.87	369
3457.57	410
3456.27	414.5
3454.97	413
3453.67	410
3452.37	433.5
3451.07	413
3449.77	426.5
3448.47	435
3447.16	436
3445.86	445
3444.56	454.5
3443.26	461
3441.95	475.5
3440.65	475.5
3439.35	464
3438.04	488.5
3436.74	506
3435.43	513.5
3434.13	503
3432.82	524
3431.52	531
3430.21	552.5
3428.9	573
3427.6	550.5
3426.29	558
3424.98	549
3423.67	587.5
3422.36	593.5
3421.06	596
3419.75	631
3418.44	637.5
3417.13	641
3415.82	630.5
3414.51	645
3413.2	640.5
3411.88	657
3410.57	646.5
3409.26	657.5
3407.95	673.5
3406.64	668
3405.32	673
3404.01	700.5
3402.7	686.5
3401.38	700
3400.07	706.5
3398.75	708.5
3397.44	723
3396.12	717
3394.81	702.5
3393.49	736.5
3392.18	715
3390.86	747.5
3389.54	741.5
3388.23	725.5
3386.91	753.5
3385.59	765
3384.27	786.5
3382.95	764.5
3381.63	802
3380.31	794.5
3378.99	791
3377.67	800
3376.35	809.5
3375.03	820.5
3373.71	835
3372.39	846.5
3371.07	827.5
3369.75	840.5
3368.42	846
3367.1	875
3365.78	846
3364.45	881.5
3363.13	873.5
3361.81	865
3360.48	867
3359.16	883
3357.83	906.5
3356.51	899
3355.18	931
3353.85	928.5
3352.53	918
3351.2	913.5
3349.87	908
3348.54	938
3347.22	935
3345.89	943.5
3344.56	928
3343.23	935.5
3341.9	943
3340.57	958.5
3339.24	958
3337.91	933
3336.58	952.5
3335.25	950
3333.92	972.5
3332.58	959
3331.25	950.5
3329.92	980
3328.59	975
3327.25	988
3325.92	982
3324.58	977.5
3323.25	993
3321.92	994.5
3320.58	999.5
3319.25	1007
3317.91	1004
3316.57	1004
3315.24	1025.5
3313.9	1029.5
3312.56	1020.5
3311.23	1030.5
3309.89	1031.5
3308.55	1038
3307.21	1040.5
3305.87	1039.5
3304.53	1071
3303.19	1066
3301.85	1070.5
3300.51	1072.5
3299.17	1071.5
3297.83	1106
3296.49	1086
3295.15	1094
3293.81	1104.5
3292.46	1114.5
3291.12	1112
3289.78	1124
3288.43	1110
3287.09	1124
3285.75	1092
3284.4	1129
3283.06	1115.5
3281.71	1136.5
3280.37	1169
3279.02	1132.5
3277.67	1174
3276.33	1182
3274.98	1165.5
3273.63	1182.5
3272.28	1205
3270.94	1197.5
3269.59	1206
3268.24	1236.5
3266.89	1252
3265.54	1266.5
3264.19	1277
3262.84	1321
3261.49	1281.5
3260.14	1329.5
3258.79	1344.5
3257.44	1379.5
3256.08	1396
3254.73	1450.5
3253.38	1468.5
3252.03	1494
3250.67	1569.5
3249.32	1569
3247.96	1621.5
3246.61	1680
3245.26	1710
3243.9	1718
3242.54	1776.5
3241.19	1852
3239.83	1903
3238.48	1929
3237.12	1957
3235.76	2020
3234.41	2058
3233.05	2123
3231.69	2177.5
3230.33	2197
3228.97	2254
3227.61	2292
3226.25	2339
3224.89	2356
3223.53	2416
3222.17	2415.5
3220.81	2448
3219.45	2462
3218.09	2503.5
3216.72	2542.5
3215.36	2544
3214	2588
3212.63	2593.5
3211.27	2614.5
3209.91	2636
3208.54	2648
3207.18	2696
3205.81	2690.5
3204.45	2691
3203.08	2691
3201.71	2745.5
3200.35	2742.5
3198.98	2781
3197.61	2783.5
3196.25	2764
3194.88	2811
3193.51	2857
3192.14	2828
3190.77	2855.5
3189.4	2873
3188.03	2885.5
3186.66	2853.5
3185.29	2878.5
3183.92	2939
3182.55	2927
3181.18	2965.5
3179.81	2976.5
3178.44	3007.5
3177.06	3010.5
3175.69	3038
3174.32	3080
3172.94	3102
3171.57	3109.5
3170.2	3167.5
3168.82	3149.5
3167.45	3226
3166.07	3193
3164.69	3221
3163.32	3252
3161.94	3275.5
3160.56	3334.5
3159.19	3348.5
3157.81	3357.5
3156.43	3386
3155.05	3371.5
3153.67	3412
3152.3	3439
3150.92	3461.5
3149.54	3495
3148.16	3494
3146.78	3529.5
3145.4	3567.5
3144.01	3564
3142.63	3617
3141.25	3599
3139.87	3645
3138.49	3657
3137.1	3703.5
3135.72	3726.5
3134.34	3739.5
3132.95	3766.5
3131.57	3777.5
3130.18	3783.5
3128.8	3840
3127.41	3855
3126.03	3879
3124.64	3906.5
3123.25	3937.5
3121.87	3948.5
3120.48	3976
3119.09	4031.5
3117.7	4011.5
3116.32	4070.5
3114.93	4022
3113.54	4050.5
3112.15	4062
3110.76	4132.5
3109.37	4116.5
3107.98	4185.5
3106.59	4189
3105.2	4163
3103.8	4203.5
3102.41	4223.5
3101.02	4255.5
3099.63	4270
3098.23	4266.5
3096.84	4254
3095.45	4316.5
3094.05	4299.5
3092.66	4346
3091.26	4350.5
3089.87	4340.5
3088.47	4394
3087.08	4374
3085.68	4393.5
3084.28	4378
3082.89	4419.5
3081.49	4438
3080.09	4361
3078.69	4447
3077.3	4482.5
3075.9	4425.5
3074.5	4431.5
3073.1	4493.5
3071.7	4467.5
3070.3	4506
3068.9	4519
3067.5	4552.5
3066.09	4520.5
3064.69	4565
3063.29	4607
3061.89	4556
3060.48	4561
3059.08	4663.5
3057.68	4653.5
3056.27	4672
3054.87	4666.5
3053.46	4694
3052.06	4700.5
3050.65	4668
3049.25	4727.5
3047.84	4743.5
3046.44	4745
3045.03	4747
3043.62	4824
3042.21	4820
3040.81	4751.5
3039.4	4835
3037.99	4810
3036.58	4840
3035.17	4808.5
3033.76	4922
3032.35	4857
3030.94	4879
3029.53	4855.5
3028.12	4874
3026.71	4897.5
3025.29	4909
3023.88	4925.5
3022.47	4944.5
3021.06	4897
3019.64	4902
3018.23	4904
3016.82	4913
3015.4	4964.5
3013.99	4920.5
3012.57	4963
3011.15	4930
3009.74	4947.5
3008.32	4945.5
3006.91	4984.5
3005.49	5039
3004.07	5052.5
3002.65	5051
3001.24	5058.5
2999.82	5070
2998.4	5136
2996.98	5075.5
2995.56	5148.5
2994.14	5180.5
2992.72	5208
2991.3	5197.5
2989.88	5212.5
2988.46	5245
2987.03	5220
2985.61	5335
2984.19	5343
2982.77	5366
2981.34	5425.5
2979.92	5434.5
2978.49	5480.5
2977.07	5491.5
2975.65	5531
2974.22	5516
2972.79	5563.5
2971.37	5530
2969.94	5554
2968.52	5571
2967.09	5651.5
2965.66	5571
2964.23	5584.5
2962.81	5623
2961.38	5631
2959.95	5666.5
2958.52	5643
2957.09	5689.5
2955.66	5716.5
2954.23	5665
2952.8	5659
2951.37	5671.5
2949.94	5652
2948.5	5727.5
2947.07	5734.5
2945.64	5750
2944.21	5728.5
2942.77	5707
2941.34	5772.5
2939.91	5777.5
2938.47	5777.5
2937.04	5855.5
2935.6	5817
2934.17	5797
2932.73	5879.5
2931.29	5861.5
2929.86	5877.5
2928.42	5916.5
2926.98	5931
2925.55	5936
2924.11	5962.5
2922.67	5951.5
2921.23	5916.5
2919.79	5956.5
2918.35	5951.5
2916.91	5967.5
2915.47	6051
2914.03	5950
2912.59	6019.5
2911.15	6029.5
2909.71	5971.5
2908.26	6015.5
2906.82	6027.5
2905.38	6035
2903.94	5985.5
2902.49	6038.5
2901.05	6098
2899.6	6065.5
2898.16	6034
2896.71	6014
2895.27	6089.5
2893.82	6113
2892.38	6089.5
2890.93	6108.5
2889.48	6132.5
2888.03	6126.5
2886.59	6065
2885.14	6179.5
2883.69	6144.5
2882.24	6154
2880.79	6170.5
2879.34	6153
2877.89	6135.5
2876.44	6200
2874.99	6148
2873.54	6171
2872.09	6143.5
2870.64	6135
2869.18	6202
2867.73	6161
2866.28	6151
2864.83	6199.5
2863.37	6173
2861.92	6133
2860.46	6160.5
2859.01	6141
2857.55	6151
2856.1	6138.5
2854.64	6164
2853.19	6143
2851.73	6170
2850.27	6180.5
2848.81	6217
2847.36	6155.5
2845.9	6197.5
2844.44	6191
2842.98	6195.5
2841.52	6253
2840.06	6242
2838.6	6214
2837.14	6203.5
2835.68	6198
2834.22	6225.5
2832.76	6188
2831.3	6208
2829.83	6243.5
2828.37	6228.5
2826.91	6205
2825.44	6203.5
2823.98	6173.5
2822.52	6151
2821.05	6181.5
2819.59	6142.5
2818.12	6138
2816.66	6143
2815.19	6096
2813.72	6123
2812.26	6062.5
2810.79	6099
2809.32	6095.5
2807.85	6067.5
2806.38	6111.5
2804.92	6086.5
2803.45	6075.5
2801.98	6107.5
2800.51	6073.5
2799.04	6062.5
2797.57	6091
2796.1	6014.5
2794.62	6049.5
2793.15	6053.5
2791.68	6070.5
2790.21	6074
2788.73	6048
2787.26	6104
2785.79	6119.5
2784.31	6102.5
2782.84	6105
2781.36	6139.5
2779.89	6174.5
2778.41	6153
2776.94	6182
2775.46	6164
2773.99	6170.5
2772.51	6189.5
2771.03	6212.5
2769.55	6254
2768.07	6241
2766.6	6258.5
2765.12	6273.5
2763.64	6301
2762.16	6272.5
2760.68	6251.5
2759.2	6225.5
2757.72	6258.5
2756.24	6248
2754.75	6337.5
2753.27	6218
2751.79	6258.5
2750.31	6246
2748.82	6209
2747.34	6236.5
2745.86	6236.5
2744.37	6211.5
2742.89	6227
2741.4	6210.5
2739.92	6207
2738.43	6177.5
2736.94	6161.5
2735.46	6242
2733.97	6239
2732.48	6162
2731	6141.5
2729.51	6156
2728.02	6137
2726.53	6102.5
2725.04	6152.5
2723.55	6153
2722.06	6144.5
2720.57	6192.5
2719.08	6096.5
2717.59	6092
2716.1	6143
2714.61	6155
2713.11	6121
2711.62	6212
2710.13	6204.5
2708.64	6187.5
2707.14	6213
2705.65	6181
2704.15	6133
2702.66	6173.5
2701.16	6121.5
2699.67	6141.5
2698.17	6162.5
2696.67	6142.5
2695.18	6079
2693.68	6133
2692.18	6164
2690.69	6057.5
2689.19	6035.5
2687.69	5992.5
2686.19	6034.5
2684.69	6000.5
2683.19	6036
2681.69	5948.5
2680.19	5949
2678.69	5909.5
2677.19	5900.5
2675.68	5941.5
2674.18	5914
2672.68	5894.5
2671.18	5951
2669.67	5870
2668.17	5875.5
2666.66	5917
2665.16	5896
2663.66	5838
2662.15	5856.5
2660.64	5885
2659.14	5873.5
2657.63	5924
2656.13	5839.5
2654.62	5854
2653.11	5825
2651.6	5801
2650.09	5768.5
2648.58	5805
2647.08	5795
2645.57	5824
2644.06	5763.5
2642.55	5752.5
2641.04	5765.5
2639.52	5770.5
2638.01	5655
2636.5	5744.5
2634.99	5683.5
2633.48	5640.5
2631.96	5665.5
2630.45	5655.5
2628.94	5613.5
2627.42	5574
2625.91	5622.5
2624.39	5614
2622.88	5575.5
2621.36	5566
2619.85	5568.5
2618.33	5557.5
2616.81	5557
2615.3	5578
2613.78	5552.5
2612.26	5564
2610.74	5588
2609.22	5578
2607.7	5570.5
2606.18	5526
2604.66	5498
2603.14	5495.5
2601.62	5463.5
2600.1	5453
2598.58	5451.5
2597.06	5380.5
2595.54	5392
2594.01	5393
2592.49	5300
2590.97	5370
2589.44	5351.5
2587.92	5314.5
2586.39	5329.5
2584.87	5299.5
2583.34	5277.5
2581.82	5271
2580.29	5308.5
2578.76	5293.5
2577.24	5266.5
2575.71	5280
2574.18	5274
2572.65	5284.5
2571.13	5234.5
2569.6	5251.5
2568.07	5307
2566.54	5270
2565.01	5241
2563.48	5218
2561.95	5219.5
2560.42	5226
2558.88	5245
2557.35	5208
2555.82	5145
2554.29	5097
2552.75	5142
2551.22	5142
2549.69	5146.5
2548.15	5100.5
2546.62	5090.5
2545.08	5121
2543.55	5098.5
2542.01	5078.5
2540.47	5059.5
2538.94	5021.5
2537.4	5036.5
2535.86	5010.5
2534.33	4982
2532.79	4990.5
2531.25	4963.5
2529.71	4985.5
2528.17	4978.5
2526.63	4955.5
2525.09	4907
2523.55	4850.5
2522.01	4920.5
2520.47	4860.5
2518.92	4824
2517.38	4866
2515.84	4834.5
2514.3	4809.5
2512.75	4794
2511.21	4781
2509.67	4791
2508.12	4766
2506.58	4808
2505.03	4730.5
2503.49	4703
2501.94	4670
2500.39	4726
2498.85	4694
2497.3	4685.5
2495.75	4658.5
2494.2	4577.5
2492.65	4640.5
2491.11	4580
2489.56	4570
2488.01	4597
2486.46	4580.5
2484.91	4568
2483.36	4565.5
2481.8	4569.5
2480.25	4515
2478.7	4507.5
2477.15	4501.5
2475.6	4502
2474.04	4484.5
2472.49	4441.5
2470.93	4415
2469.38	4362.5
2467.83	4369
2466.27	4308
2464.71	4297.5
2463.16	4301.5
2461.6	4264.5
2460.05	4361.5
2458.49	4282.5
2456.93	4262
2455.37	4254
2453.81	4276
2452.26	4222
2450.7	4258
2449.14	4195
2447.58	4140
2446.02	4109
2444.46	4125.5
2442.9	4107
2441.33	4125.5
2439.77	4090
2438.21	4061
2436.65	4089.5
2435.08	4072
2433.52	4037.5
2431.96	4068.5
2430.39	4020
2428.83	4026
2427.26	4018
2425.7	4024
2424.13	3993
2422.56	4036
2421	3970
2419.43	3969.5
2417.86	3898.5
2416.3	3971.5
2414.73	3938
2413.16	3908.5
2411.59	3909.5
2410.02	3917.5
2408.45	3896.5
2406.88	3886.5
2405.31	3900.5
2403.74	3902.5
2402.17	3850.5
2400.6	3896.5
2399.02	3863.5
2397.45	3836
2395.88	3823
2394.3	3809.5
2392.73	3822
2391.16	3773.5
2389.58	3796
2388.01	3797.5
2386.43	3781
2384.86	3773
2383.28	3789
2381.7	3764
2380.13	3722.5
2378.55	3743
2376.97	3739.5
2375.39	3736
2373.81	3702.5
2372.23	3707
2370.65	3711.5
2369.07	3703
2367.49	3698
2365.91	3695
2364.33	3675.5
2362.75	3662
2361.17	3663.5
2359.59	3650.5
2358.01	3684.5
2356.42	3627.5
2354.84	3641
2353.25	3677.5
2351.67	3675
2350.09	3626
2348.5	3655
2346.92	3602
2345.33	3646.5
2343.74	3592.5
2342.16	3616
2340.57	3613.5
2338.98	3576
2337.39	3548
2335.81	3525.5
2334.22	3510
2332.63	3492
2331.04	3481
2329.45	3489.5
2327.86	3508.5
2326.27	3468.5
2324.68	3497
2323.09	3475
2321.49	3500
2319.9	3412.5
2318.31	3443.5
2316.72	3417.5
2315.12	3437
2313.53	3397
2311.93	3391
2310.34	3362.5
2308.74	3359.5
2307.15	3305.5
2305.55	3352
2303.96	3303
2302.36	3287
2300.76	3271
2299.17	3272
2297.57	3277.5
2295.97	3225.5
2294.37	3229
2292.77	3245.5
2291.17	3203.5
2289.57	3249.5
2287.97	3250.5
2286.37	3218
2284.77	3219
2283.17	3211.5
2281.57	3214
2279.96	3170.5
2278.36	3139
2276.76	3153.5
2275.15	3133
2273.55	3171
2271.95	3128
2270.34	3108.5
2268.74	3088
2267.13	3064
2265.52	3074
2263.92	3066
2262.31	3059
2260.7	3018
2259.1	3042.5
2257.49	3032
2255.88	3040.5
2254.27	3012.5
2252.66	3031
2251.05	3023.5
2249.44	2952.5
2247.83	2996
2246.22	2986.5
2244.61	2936
2243	2989.5
2241.39	2966.5
2239.77	2942.5
2238.16	2913
2236.55	2943
2234.93	2898.5
2233.32	2873
2231.7	2854.5
2230.09	2844.5
2228.47	2848.5
2226.86	2801
2225.24	2844.5
2223.63	2807.5
2222.01	2770
2220.39	2796.5
2218.77	2783.5
2217.16	2738
2215.54	2740
2213.92	2757.5
2212.3	2757
2210.68	2723.5
2209.06	2746.5
2207.44	2705
2205.82	2730
2204.19	2710
2202.57	2699.5
2200.95	2686.5
2199.33	2690.5
2197.7	2684
2196.08	2668.5
2194.46	2697
2192.83	2641
2191.21	2635.5
2189.58	2632
2187.96	2635
2186.33	2658.5
2184.7	2648
2183.08	2639
2181.45	2616
2179.82	2582
2178.19	2583.5
2176.57	2576
2174.94	2559.5
2173.31	2581.5
2171.68	2566
2170.05	2508.5
2168.42	2546.5
2166.79	2521
2165.16	2532
2163.52	2488
2161.89	2452.5
2160.26	2499
2158.63	2465
2156.99	2464.5
2155.36	2412
2153.73	2478.5
2152.09	2460
2150.46	2448
2148.82	2393
2147.18	2401.5
2145.55	2375
2143.91	2376.5
2142.27	2387.5
2140.64	2327
2139	2364.5
2137.36	2370
2135.72	2345.5
2134.08	2318.5
2132.44	2314.5
2130.8	2264
2129.16	2304
2127.52	2325.5
2125.88	2274
2124.24	2248
2122.6	2264
2120.95	2189.5
2119.31	2248.5
2117.67	2217.5
2116.02	2208
2114.38	2204.5
2112.74	2211
2111.09	2195
2109.45	2182.5
2107.8	2172
2106.15	2166
2104.51	2175
2102.86	2147
2101.21	2118
2099.56	2133.5
2097.92	2098
2096.27	2128.5
2094.62	2136
2092.97	2094
2091.32	2100
2089.67	2120.5
2088.02	2142
2086.37	2071
2084.72	2091
2083.06	2094.5
2081.41	2077
2079.76	2066.5
2078.1	2053
2076.45	2063.5
2074.8	2044
2073.14	2052
2071.49	2047
2069.83	2046
2068.18	2040
2066.52	2034
2064.86	2025.5
2063.21	2018.5
2061.55	2015.5
2059.89	1987
2058.23	1982.5
2056.57	1970
2054.92	1971.5
2053.26	1990.5
2051.6	1959.5
2049.94	1958
2048.27	1937.5
2046.61	1929.5
2044.95	1940
2043.29	1923
2041.63	1907.5
2039.97	1887.5
2038.3	1896
2036.64	1883.5
2034.97	1837.5
2033.31	1864
2031.64	1862.5
2029.98	1849.5
2028.31	1827.5
2026.65	1800
2024.98	1805.5
2023.31	1793
2021.65	1755.5
2019.98	1746
2018.31	1770.5
2016.64	1763
2014.97	1748
2013.3	1742
2011.63	1773.5
2009.96	1753.5
2008.29	1737
2006.62	1740.5
2004.95	1725.5
2003.28	1730
2001.6	1718
1999.93	1725.5
1998.26	1729
1996.58	1714
1994.91	1691.5
1993.24	1668
1991.56	1660.5
1989.89	1678
1988.21	1674.5
1986.53	1653.5
1984.86	1668
1983.18	1659
1981.5	1659
1979.82	1632
1978.15	1625
1976.47	1597
1974.79	1634
1973.11	1598.5
1971.43	1602
1969.75	1577
1968.07	1555
1966.38	1591
1964.7	1547
1963.02	1572
1961.34	1547.5
1959.66	1536
1957.97	1508.5
1956.29	1526
1954.6	1538
1952.92	1514
1951.23	1523
1949.55	1523
1947.86	1496.5
1946.18	1499
1944.49	1480.5
1942.8	1481.5
1941.11	1500
1939.43	1510
1937.74	1468
1936.05	1448.5
1934.36	1467
1932.67	1450.5
1930.98	1451.5
1929.29	1420.5
1927.6	1409.5
1925.91	1401
1924.21	1421
1922.52	1393
1920.83	1410
1919.14	1411.5
1917.44	1368
1915.75	1360.5
1914.05	1381
1912.36	1382.5
1910.66	1388
1908.97	1370
1907.27	1364
1905.58	1366.5
1903.88	1350
1902.18	1334.5
1900.48	1338
1898.79	1324.5
1897.09	1319
1895.39	1276
1893.69	1283.5
1891.99	1290
1890.29	1284.5
1888.59	1300.5
1886.89	1265.5
1885.18	1266.5
1883.48	1252.5
1881.78	1238.5
1880.08	1232.5
1878.37	1237.5
1876.67	1228
1874.96	1210.5
1873.26	1194.5
1871.55	1207.5
1869.85	1225
1868.14	1198
1866.44	1193.5
1864.73	1182
1863.02	1177.5
1861.32	1154
1859.61	1194
1857.9	1154.5
1856.19	1156.5
1854.48	1154
1852.77	1157.5
1851.06	1149
1849.35	1153
1847.64	1138
1845.93	1153.5
1844.21	1121.5
1842.5	1119.5
1840.79	1139.5
1839.08	1120.5
1837.36	1131
1835.65	1113
1833.93	1124.5
1832.22	1133.5
1830.5	1096.5
1828.79	1100
1827.07	1076
1825.36	1057
1823.64	1063.5
1821.92	1057.5
1820.2	1061
1818.48	1046
1816.77	1059.5
1815.05	1052
1813.33	1044
1811.61	1040
1809.89	1032.5
1808.16	1035.5
1806.44	996
1804.72	1039
1803	1002
1801.28	1017.5
1799.55	995
1797.83	986
1796.11	1001.5
1794.38	967.5
1792.66	988.5
1790.93	967
1789.21	965.5
1787.48	968
1785.75	960.5
1784.03	957
1782.3	944.5
1780.57	932
1778.84	950
1777.11	938.5
1775.38	940.5
1773.66	944.5
1771.93	928.5
1770.19	944
1768.46	946
1766.73	910.5
1765	902
1763.27	921
1761.54	920
1759.8	910
1758.07	927.5
1756.34	918
1754.6	916.5
1752.87	894.5
1751.13	899
1749.4	887
1747.66	892.5
1745.92	907.5
1744.19	915
1742.45	887.5
1740.71	884
1738.97	882.5
1737.23	863.5
1735.49	868.5
1733.75	867
1732.01	870.5
1730.27	888
1728.53	864
1726.79	869.5
1725.05	842
1723.31	852
1721.57	839.5
1719.82	810.5
1718.08	841.5
1716.34	825.5
1714.59	814.5
1712.85	828.5
1711.1	805
1709.36	805
1707.61	813.5
1705.86	793
1704.12	811
1702.37	793.5
1700.62	787
1698.87	771
1697.12	787.5
1695.37	774.5
1693.62	771
1691.87	765.5
1690.12	765.5
1688.37	760
1686.62	744.5
1684.87	746.5
1683.12	742
1681.36	763.5
1679.61	750
1677.86	737.5
1676.1	733
1674.35	721
1672.59	730
1670.84	731
1669.08	731
1667.33	734
1665.57	713.5
1663.81	733
1662.06	704
1660.3	708
1658.54	718.5
1656.78	683
1655.02	705.5
1653.26	704.5
1651.5	689
1649.74	709.5
1647.98	683.5
1646.22	704.5
1644.46	698
1642.7	667.5
1640.93	698.5
1639.17	685
1637.41	676
1635.64	661
1633.88	677
1632.11	676
1630.35	670.5
1628.58	663.5
1626.81	643
1625.05	664
1623.28	647
1621.51	643
1619.75	642.5
1617.98	625
1616.21	631.5
1614.44	624
1612.67	625.5
1610.9	623.5
1609.13	626
1607.36	628
1605.58	634
1603.81	640
1602.04	628.5
1600.27	628
1598.49	620.5
1596.72	603
1594.95	625
1593.17	610
1591.4	592
1589.62	607
1587.84	614.5
1586.07	608
1584.29	597
1582.51	590.5
1580.74	604
1578.96	585.5
1577.18	578
1575.4	592
1573.62	566
1571.84	576
1570.06	568
1568.28	569.5
1566.5	562
1564.72	547
1562.93	552
1561.15	551.5
1559.37	559.5
1557.58	566
1555.8	554.5
1554.02	539
1552.23	560
1550.45	553
1548.66	532.5
1546.87	518.5
1545.09	525
1543.3	539.5
1541.51	515.5
1539.72	536.5
1537.94	513
1536.15	512
1534.36	529.5
1532.57	513
1530.78	512.5
1528.99	510.5
1527.2	490.5
1525.4	487.5
1523.61	500
1521.82	476.5
1520.03	486
1518.23	499.5
1516.44	482.5
1514.65	477.5
1512.85	484.5
1511.06	503
1509.26	496
1507.46	499.5
1505.67	463
1503.87	479
1502.07	477.5
1500.28	463.5
1498.48	482
1496.68	482.5
1494.88	456.5
1493.08	463.5
1491.28	475.5
1489.48	471.5
1487.68	463
1485.88	462
1484.08	470
1482.27	470.5
1480.47	448.5
1478.67	462
1476.86	450
1475.06	463
1473.25	454
1471.45	447.5
1469.64	445
1467.84	451
1466.03	441.5
1464.23	448
1462.42	434.5
1460.61	435.5
1458.8	440.5
1456.99	441
1455.18	435
1453.37	435.5
1451.56	420.5
1449.75	435
1447.94	430
1446.13	425.5
1444.32	414.5
1442.51	412
1440.7	397.5
1438.88	423
1437.07	417
1435.26	416
1433.44	403.5
1431.63	399.5
1429.81	391
1427.99	390
1426.18	405.5
1424.36	384.5
1422.54	405.5
1420.73	396
1418.91	381
1417.09	394.5
1415.27	390
1413.45	389.5
1411.63	395
1409.81	383.5
1407.99	381
1406.17	372.5
1404.35	371
1402.53	382
1400.7	383.5
1398.88	365.5
1397.06	384
1395.23	360
1393.41	369
1391.58	380.5
1389.76	345
1387.93	372.5
1386.11	356
1384.28	362
1382.45	362.5
1380.62	357
1378.8	344.5
1376.97	367
1375.14	352
1373.31	356
1371.48	357.5
1369.65	346.5
1367.82	349.5
1365.99	341
1364.16	356.5
1362.32	352
1360.49	339
1358.66	338
1356.82	334.5
1354.99	337
1353.16	330
1351.32	346.5
1349.48	339
1347.65	351
1345.81	324
1343.98	337
1342.14	328
1340.3	316
1338.46	335
1336.62	335
1334.79	326.5
1332.95	313.5
1331.11	315
1329.27	312
1327.42	314
1325.58	312.5
1323.74	313.5
1321.9	299.5
1320.06	305
1318.21	306
1316.37	312
1314.53	300.5
1312.68	312.5
1310.84	293
1308.99	310.5
1307.15	298
1305.3	303
1303.45	285
1301.61	301
1299.76	301
1297.91	295
1296.06	312
1294.21	264
1292.36	289.5
1290.51	291.5
1288.66	280
1286.81	289
1284.96	286
1283.11	285
1281.26	286
1279.4	270.5
1277.55	282.5
1275.7	285.5
1273.84	280.5
1271.99	261.5
1270.13	270.5
1268.28	274.5
1266.42	271
1264.56	262.5
1262.71	261
1260.85	260.5
1258.99	250.5
1257.13	262
1255.27	262
1253.41	268
1251.56	260.5
1249.7	244
1247.83	258
1245.97	245.5
1244.11	251.5
1242.25	251.5
1240.39	250
1238.52	258.5
1236.66	253.5
1234.8	257.5
1232.93	239
1231.07	241
1229.2	236
1227.34	246.5
1225.47	246
1223.6	241.5
1221.74	244.5
1219.87	245
1218	241
1216.13	231
1214.26	227.5
1212.39	235.5
1210.53	234.5
1208.65	238.5
1206.78	230.5
1204.91	230.5
1203.04	227
1201.17	233
1199.3	226
1197.42	233
1195.55	223.5
1193.68	224
1191.8	220
1189.93	226.5
1188.05	225
1186.17	212
1184.3	217
1182.42	221
1180.54	203
1178.67	220.5
1176.79	214
1174.91	222
1173.03	228.5
1171.15	217
1169.27	217
1167.39	209
1165.51	230
1163.63	206
1161.75	203
1159.86	213
1157.98	211
1156.1	194
1154.21	206
1152.33	211.5
1150.44	213
1148.56	216
1146.67	204.5
1144.79	202.5
1142.9	203.5
1141.01	205.5
1139.12	196.5
1137.24	209
1135.35	210.5
1133.46	187.5
1131.57	207.5
1129.68	186
1127.79	195
1125.9	181
1124.01	197.5
1122.12	189.5
1120.22	185
1118.33	176
1116.44	196
1114.54	201.5
1112.65	183
1110.75	188
1108.86	185.5
1106.96	189.5
1105.07	188
1103.17	192
1101.27	189
1099.38	190
1097.48	188
1095.58	190
1093.68	187
1091.78	176
1089.88	181
1087.98	182
1086.08	192.5
1084.18	188
1082.28	174.5
1080.38	184
1078.47	187.5
1076.57	174.5
1074.67	174.5
1072.76	168
1070.86	177
1068.95	178
1067.05	167
1065.14	178
1063.24	170
1061.33	171.5
1059.42	171
1057.51	173.5
1055.6	172.5
1053.7	167
1051.79	160.5
1049.88	173.5
1047.97	153
1046.06	169.5
1044.14	170.5
1042.23	173
1040.32	168
1038.41	164.5
1036.5	157
1034.58	167
1032.67	171.5
1030.75	172
1028.84	174
1026.92	168
1025.01	165.5
1023.09	178
1021.17	168.5
1019.26	180
1017.34	175
1015.42	173
1013.5	171
1011.58	172
1009.66	177.5
1007.74	172.5
1005.82	182
1003.9	180.5
1001.98	183
1000.06	192.5
998.134	188
996.212	196
994.288	188.5
992.364	199
990.44	209
988.515	215.5
986.589	228.5
984.663	243
982.737	228
980.81	236
978.883	240
976.955	233.5
975.027	256.5
973.098	234.5
971.169	233
969.239	244
967.308	236
965.378	250
963.447	248
961.516	253
959.583	240.5
957.65	249.5
955.718	252.5
953.784	270
951.85	258.5
949.916	265.5
947.981	270.5
946.045	267
944.109	285.5
942.173	272.5
940.236	273
938.298	267
936.36	260
934.422	251.5
932.484	239
930.544	223
928.604	192.5
926.664	175.5
924.724	162.5
922.782	159.5
920.84	159.5
918.898	167.5
916.955	152
915.012	156
913.068	159
911.124	146.5
909.18	161.5
907.235	150
905.289	147
903.343	149.5
901.397	153
899.45	158
897.502	152.5
895.554	155.5
893.605	148
891.657	143
889.707	146
887.758	152.5
885.807	137
883.856	139
881.905	140
879.953	145.5
878.001	141.5
876.048	161.5
874.094	148
872.14	150
870.186	154
868.232	139
866.276	146
864.321	134
862.365	159
860.408	142.5
858.451	138
856.493	146
854.535	135
852.576	141.5
850.617	142
848.658	134.5
846.698	129
844.737	134.5
842.776	139
840.814	139
838.852	140.5
836.89	142.5
834.927	137
832.963	131.5
830.999	117
829.035	138.5
827.07	131
825.105	136.5
823.139	135.5
821.172	137
819.206	135
817.238	131
815.27	132
813.301	130.5
811.333	132.5
809.363	129.5
807.394	131.5
805.424	134.5
803.453	136.5
801.482	128.5
799.509	119.5
797.538	123
795.565	119.5
793.592	130.5
791.618	128
789.643	128
787.669	125
785.693	124
783.718	131.5
781.742	117
779.765	124
777.788	125
775.811	110.5
773.832	128
771.853	120
769.875	125
767.895	114.5
765.915	116
763.934	122.5
761.953	116.5
759.972	109
757.99	113
756.007	109
754.024	122
752.041	120
750.056	115
748.072	126.5
746.087	121
744.102	111
742.116	115
740.13	133.5
738.143	117.5
736.155	120
734.167	113
732.179	114.5
730.19	113
728.2	115.5
726.21	118
724.22	117
722.229	118.5
720.237	116.5
718.246	116.5
716.253	114.5
714.26	118
712.267	110
710.273	116
708.279	112
706.284	117.5
704.289	112
702.293	120.5
700.296	118
698.3	118
696.303	112
694.305	122.5
692.307	123.5
690.307	115
688.308	123
686.309	118
684.308	124.5
682.308	118.5
680.306	130
678.304	121
676.302	134.5
674.3	134
672.296	134
670.293	127.5
668.289	131
666.284	125
664.278	127.5
662.273	129
660.266	134
658.26	127
656.252	135.5
654.244	134.5
652.237	135.5
650.227	133
648.218	140
646.209	128
644.198	129
642.188	131.5
640.177	141.5
638.165	144.5
636.153	125
634.14	137
632.128	131
630.113	129.5
628.099	134
626.085	140
624.07	141.5
622.054	143
620.038	139
618.021	133
616.004	132.5
613.986	135
611.968	130.5
609.949	130.5
607.93	128.5
605.911	126
603.891	127
601.87	118.5
599.848	131
597.827	116
595.805	122.5
593.782	126
591.759	121
589.735	122
587.711	124
585.687	126.5
583.661	125.5
581.636	127
579.609	132.5
577.583	126
575.555	131
573.527	131.5
571.5	131
569.471	127
567.441	137.5
565.412	138
563.382	147
561.351	142.5
559.32	145.5
557.289	148.5
555.257	161
553.223	159
551.19	165
549.157	163.5
547.122	188
545.088	201.5
543.053	214
541.017	231
538.981	258
536.943	317.5
534.907	391
532.869	511
530.831	763
528.792	1140
526.752	1860
524.713	2858
522.673	3572
520.632	3650
518.591	2978.5
516.549	2078.5
514.507	1350.5
512.464	874.5
510.42	569.5
508.377	402.5
506.332	303.5
504.288	260
502.242	222
500.196	216
498.15	205
496.104	185
494.056	173
492.008	180.5
489.96	177.5
487.911	165.5
485.862	157
483.812	150.5
481.761	162.5
479.71	158
477.659	151
475.607	149.5
473.555	139.5
471.502	139.5
469.448	133
467.395	136.5
465.34	139
463.285	135
461.23	139.5
459.174	146.5
457.118	131
455.061	137
453.003	133
450.945	134.5
448.887	145.5
446.828	148
444.768	143
442.708	149
440.647	160
438.587	153.5
436.525	153
434.463	151
432.4	150
430.337	154
428.274	142.5
426.21	156
424.145	150
422.079	141.5
420.014	149
417.948	152
415.882	148.5
413.814	144.5
411.746	151
409.679	139
407.609	145
405.54	157
403.47	151.5
401.401	160
399.329	156
397.258	157.5
395.187	153
393.114	145
391.041	151
388.968	155.5
386.895	164
384.82	153
382.745	151
380.67	153.5
378.594	152
376.517	157
374.44	161.5
372.363	150
370.286	155
368.207	155
366.128	160.5
364.049	157.5
361.969	148
359.888	165.5
357.807	158
355.725	165.5
353.643	169.5
351.561	156.5
349.477	171
347.394	160.5
345.31	160
343.226	167.5
341.141	166
339.055	173.5
336.968	178
334.882	169
332.795	176
330.707	181
328.618	190
326.53	189.5
324.44	197.5
322.351	185.5
320.26	209
318.17	214
316.078	236.5
313.987	226.5
311.895	244.5
309.802	267
307.708	280
305.614	283
303.52	284
301.425	275.5
299.329	271
297.233	253
295.137	229.5
293.039	212.5
290.942	221
288.844	211
286.745	190.5
284.647	183.5
282.546	183
280.446	178
278.346	178
276.245	172.5
274.143	164
272.041	172.5
269.939	166
267.835	176
265.731	161.5
263.627	164
261.522	158.5
259.417	166
257.311	170.5
255.204	160.5
253.098	157
250.99	141
248.882	165.5
246.774	142
244.664	148
242.555	157.5
240.445	161.5
238.334	160
236.223	155
234.112	161
232	149.5
229.888	154.5
227.775	162.5
225.661	156.5
223.546	141
221.431	141.5
219.316	145
217.201	149
215.084	153
212.967	135
210.85	137
208.732	141
206.614	136.5
204.495	143.5
202.375	130.5
200.256	143
198.135	142
196.014	134.5
193.893	129
191.771	145
189.648	142
187.525	141.5
185.401	150
183.277	142.5
181.152	145
179.027	157.5
176.901	144.5
174.775	153
172.648	157
170.521	160
168.393	161
166.265	166
164.136	176
162.007	169.5
159.876	171.5
157.746	176
155.615	166
153.483	187
151.351	178.5
149.219	200
147.086	192
144.952	200
142.818	208
140.684	203
138.548	211
136.413	220.5
134.276	212
132.139	232.5
130.002	222
127.864	242
125.725	245.5
123.587	253.5
121.447	246
119.307	271.5
117.166	272.5
115.026	265.5
112.885	283.5
110.743	304
108.6	303
106.456	302
104.313	301.5
102.169	307.5
100.023	311
97.8789	281.5
95.7328	269
93.5869	243.5
91.4392	203
89.2919	177.5
87.1447	149
84.9959	116.5
