3528.51	262
3527.23	269
3525.95	286
3524.67	287
3523.39	305
3522.1	283
3520.82	290.5
3519.54	312
3518.26	304
3516.97	307.5
3515.69	308.5
3514.4	296
3513.12	291.5
3511.84	312
3510.55	306.5
3509.26	318.5
3507.98	317.5
3506.69	326
3505.41	312
3504.12	323.5
3502.83	336.5
3501.54	320
3500.26	344
3498.97	334.5
3497.68	351.5
3496.39	360
3495.1	353
3493.81	366
3492.52	366
3491.23	378
3489.94	371.5
3488.65	384.5
3487.36	387
3486.07	380
3484.78	389
3483.49	399.5
3482.19	397
3480.9	394
3479.61	418
3478.31	428.5
3477.02	428
3475.73	422
3474.43	438.5
3473.14	448.5
3471.84	436.5
3470.54	441.5
3469.25	440
3467.95	462.5
3466.66	449
3465.36	452.5
3464.06	461
3462.76	461.5
3461.46	469.5
3460.17	464.5
3458.87	476
3457.57	468.5
3456.27	481
3454.97	491.5
3453.67	493
3452.37	498.5
3451.07	503.5
3449.77	491
3448.47	511.5
3447.16	506.5
3445.86	526.5
3444.56	530
3443.26	535
3441.95	548
3440.65	554.5
3439.35	562.5
3438.04	570
3436.74	601
3435.43	585.5
3434.13	587.5
3432.82	596.5
3431.52	628.5
3430.21	623
3428.9	644
3427.6	650
3426.29	653.5
3424.98	680.5
3423.67	668.5
3422.36	684
3421.06	705
3419.75	723
3418.44	710
3417.13	734
3415.82	733
3414.51	735.5
3413.2	750
3411.88	763.5
3410.57	771
3409.26	778
3407.95	786
3406.64	795.5
3405.32	795
3404.01	795
3402.7	808.5
3401.38	816.5
3400.07	805
3398.75	818
3397.44	807
3396.12	855.5
3394.81	841.5
3393.49	866.5
3392.18	855.5
3390.86	853.5
3389.54	872
3388.23	893.5
3386.91	879.5
3385.59	915.5
3384.27	894.5
3382.95	931.5
3381.63	925
3380.31	938.5
3378.99	938
3377.67	941
3376.35	955.5
3375.03	975.5
3373.71	969
3372.39	966.5
3371.07	984
3369.75	990
3368.42	985
3367.1	975
3365.78	1032.5
3364.45	996
3363.13	1019.5
3361.81	1016
3360.48	1046.5
3359.16	1057
3357.83	1052
3356.51	1055.5
3355.18	1067
3353.85	1070
3352.53	1072
3351.2	1064
3349.87	1081
3348.54	1074
3347.22	1078.5
3345.89	1135.5
3344.56	1114.5
3343.23	1111
3341.9	1110.5
3340.57	1107.5
3339.24	1130.5
3337.91	1116
3336.58	1107.5
3335.25	1132
3333.92	1122.5
3332.58	1128
3331.25	1143
3329.92	1151
3328.59	1131
3327.25	1167.5
3325.92	1140
3324.58	1157
3323.25	1168.5
3321.92	1161.5
3320.58	1180.5
3319.25	1178.5
3317.91	1180
3316.57	1203.5
3315.24	1205.5
3313.9	1183.5
3312.56	1210.5
3311.23	1227
3309.89	1221.5
3308.55	1223.5
3307.21	1209
3305.87	1263
3304.53	1266
3303.19	1268.5
3301.85	1261
3300.51	1278.5
3299.17	1298.5
3297.83	1288.5
3296.49	1260.5
3295.15	1283.5
3293.81	1306
3292.46	1278.5
3291.12	1301
3289.78	1283
3288.43	1293.5
3287.09	1331.5
3285.75	1309.5
3284.4	1326.5
3283.06	1306.5
3281.71	1318.5
3280.37	1331
3279.02	1334.5
3277.67	1337
3276.33	1348.5
3274.98	1360
3273.63	1331
3272.28	1363.5
3270.94	1374.5
3269.59	1390
3268.24	1414.5
3266.89	1423.5
3265.54	1457.5
3264.19	1467.5
3262.84	1467.5
3261.49	1518
3260.14	1539
3258.79	1531.5
3257.44	1566
3256.08	1556.5
3254.73	1608.5
3253.38	1643
3252.03	1668
3250.67	1702
3249.32	1763.5
3247.96	1809
3246.61	1840
3245.26	1885.5
3243.9	1934.5
3242.54	1985
3241.19	2026
3239.83	2061.5
3238.48	2147
3237.12	2186
3235.76	2226
3234.41	2298.5
3233.05	2365.5
3231.69	2419
3230.33	2463
3228.97	2501
3227.61	2535.5
3226.25	2626
3224.89	2648.5
3223.53	2697
3222.17	2753.5
3220.81	2817
3219.45	2813
3218.09	2861.5
3216.72	2873.5
3215.36	2938.5
3214	2939
3212.63	2964
3211.27	3016.5
3209.91	3033
3208.54	3061
3207.18	3085
3205.81	3076
3204.45	3102
3203.08	3118.5
3201.71	3141
3200.35	3170
3198.98	3188.5
3197.61	3202.5
3196.25	3199
3194.88	3254
3193.51	3262
3192.14	3256
3190.77	3290
3189.4	3287
3188.03	3286
3186.66	3321.5
3185.29	3307.5
3183.92	3339
3182.55	3345.5
3181.18	3354
3179.81	3409.5
3178.44	3397.5
3177.06	3461.5
3175.69	3449.5
3174.32	3482.5
3172.94	3501
3171.57	3552.5
3170.2	3564.5
3168.82	3617
3167.45	3628.5
3166.07	3642.5
3164.69	3659
3163.32	3663
3161.94	3724.5
3160.56	3734
3159.19	3802
3157.81	3789.5
3156.43	3814
3155.05	3907.5
3153.67	3919
3152.3	3934.5
3150.92	3988.5
3149.54	3976.5
3148.16	4005
3146.78	4039.5
3145.4	4109
3144.01	4071
3142.63	4082.5
3141.25	4137
3139.87	4179.5
3138.49	4181.5
3137.1	4231.5
3135.72	4224
3134.34	4244.5
3132.95	4243
3131.57	4335.5
3130.18	4318
3128.8	4336
3127.41	4399
3126.03	4397.5
3124.64	4452
3123.25	4459
3121.87	4519.5
3120.48	4444
3119.09	4573
3117.7	4548.5
3116.32	4595.5
3114.93	4586.5
3113.54	4633.5
3112.15	4688.5
3110.76	4669
3109.37	4696.5
3107.98	4695
3106.59	4755
3105.2	4786
3103.8	4800.5
3102.41	4778.5
3101.02	4839
3099.63	4856.5
3098.23	4886.5
3096.84	4909
3095.45	4898
3094.05	4946
3092.66	4961
3091.26	4961.5
3089.87	4971
3088.47	4990.5
3087.08	4958
3085.68	5050
3084.28	5079.5
3082.89	5053
3081.49	5073.5
3080.09	5098.5
3078.69	5110
3077.3	5135
3075.9	5152
3074.5	5146
3073.1	5223.5
3071.7	5130.5
3070.3	5182.5
3068.9	5194
3067.5	5208.5
3066.09	5252.5
3064.69	5231
3063.29	5263.5
3061.89	5247.5
3060.48	5313.5
3059.08	5248
3057.68	5357.5
3056.27	5320
3054.87	5360.5
3053.46	5402.5
3052.06	5344.5
3050.65	5433.5
3049.25	5365
3047.84	5391.5
3046.44	5461
3045.03	5494
3043.62	5467.5
3042.21	5545.5
3040.81	5562.5
3039.4	5564.5
3037.99	5522.5
3036.58	5561
3035.17	5518.5
3033.76	5606.5
3032.35	5607
3030.94	5667
3029.53	5638.5
3028.12	5621
3026.71	5628.5
3025.29	5596
3023.88	5673.5
3022.47	5667
3021.06	5640
3019.64	5673
3018.23	5680.5
3016.82	5633.5
3015.4	5698.5
3013.99	5774.5
3012.57	5714.5
3011.15	5741
3009.74	5761.5
3008.32	5747.5
3006.91	5731.5
3005.49	5794.5
3004.07	5810
3002.65	5849
3001.24	5901.5
2999.82	5908
2998.4	5891
2996.98	5924
2995.56	5962
2994.14	5946
2992.72	6013
2991.3	6034.5
2989.88	6017
2988.46	6008.5
2987.03	6069
2985.61	6087.5
2984.19	6093.5
2982.77	6145
2981.34	6177.5
2979.92	6238.5
2978.49	6254.5
2977.07	6301.5
2975.65	6294.5
2974.22	6366.5
2972.79	6369.5
2971.37	6406.5
2969.94	6459
2968.52	6420
2967.09	6541.5
2965.66	6568.5
2964.23	6513.5
2962.81	6519
2961.38	6575.5
2959.95	6590.5
2958.52	6602
2957.09	6610.5
2955.66	6614
2954.23	6643.5
2952.8	6642.5
2951.37	6647.5
2949.94	6734.5
2948.5	6726.5
2947.07	6738
2945.64	6759
2944.21	6774.5
2942.77	6766.5
2941.34	6806.5
2939.91	6846
2938.47	6872.5
2937.04	6834
2935.6	6932.5
2934.17	6891
2932.73	6912
2931.29	7004.5
2929.86	6962
2928.42	6967.5
2926.98	6981
2925.55	7076.5
2924.11	7041.5
2922.67	7098.5
2921.23	7095
2919.79	7101.5
2918.35	7162.5
2916.91	7133
2915.47	7185
2914.03	7172
2912.59	7191
2911.15	7137
2909.71	7165.5
2908.26	7185.5
2906.82	7203.5
2905.38	7260.5
2903.94	7261.5
2902.49	7219
2901.05	7273
2899.6	7326.5
2898.16	7331
2896.71	7338.5
2895.27	7380
2893.82	7330.5
2892.38	7373
2890.93	7371.5
2889.48	7355.5
2888.03	7340.5
2886.59	7369.5
2885.14	7428
2883.69	7379
2882.24	7463
2880.79	7445.5
2879.34	7419
2877.89	7432
2876.44	7433.5
2874.99	7465
2873.54	7409.5
2872.09	7373
2870.64	7454
2869.18	7403
2867.73	7480
2866.28	7510.5
2864.83	7461
2863.37	7517.5
2861.92	7527
2860.46	7439
2859.01	7494
2857.55	7511.5
2856.1	7507.5
2854.64	7480
2853.19	7580
2851.73	7519.5
2850.27	7479
2848.81	7461.5
2847.36	7514.5
2845.9	7460
2844.44	7450.5
2842.98	7483.5
2841.52	7431.5
2840.06	7350.5
2838.6	7419.5
2837.14	7384
2835.68	7332
2834.22	7336.5
2832.76	7261.5
2831.3	7328
2829.83	7189
2828.37	7284.5
2826.91	7217
2825.44	7177.5
2823.98	7172.5
2822.52	7148.5
2821.05	7148
2819.59	7179
2818.12	7134.5
2816.66	7127.5
2815.19	7127
2813.72	7050
2812.26	7064
2810.79	7030
2809.32	7059.5
2807.85	7017.5
2806.38	6946
2804.92	6960
2803.45	7040.5
2801.98	7028.5
2800.51	6929
2799.04	6999
2797.57	6986
2796.1	6945
2794.62	6993
2793.15	7003
2791.68	6960
2790.21	6930.5
2788.73	6972.5
2787.26	6958
2785.79	6951.5
2784.31	6936.5
2782.84	7009
2781.36	6970
2779.89	7003.5
2778.41	6989
2776.94	7063
2775.46	7019.5
2773.99	7040
2772.51	7077.5
2771.03	7025
2769.55	7135
2768.07	7064.5
2766.6	7126.5
2765.12	7125.5
2763.64	7116.5
2762.16	7070
2760.68	7096.5
2759.2	7103.5
2757.72	7089.5
2756.24	7045
2754.75	7121
2753.27	7027
2751.79	7081.5
2750.31	7084
2748.82	7039
2747.34	7089.5
2745.86	7093
2744.37	7026
2742.89	7031
2741.4	7061.5
2739.92	6999.5
2738.43	6998.5
2736.94	7019
2735.46	7054.5
2733.97	7052.5
2732.48	6948.5
2731	7006.5
2729.51	7013.5
2728.02	7006.5
2726.53	7024.5
2725.04	6984.5
2723.55	6989
2722.06	6961.5
2720.57	6965
2719.08	7024
2717.59	6942
2716.1	7023.5
2714.61	7026
2713.11	7066.5
2711.62	7058
2710.13	7037
2708.64	7012.5
2707.14	6989.5
2705.65	7004.5
2704.15	7009.5
2702.66	6987.5
2701.16	6962.5
2699.67	6920
2698.17	6963
2696.67	6952.5
2695.18	6897
2693.68	6882.5
2692.18	6884
2690.69	6936
2689.19	6882.5
2687.69	6842.5
2686.19	6844.5
2684.69	6800
2683.19	6841
2681.69	6803
2680.19	6803
2678.69	6763
2677.19	6777
2675.68	6794.5
2674.18	6787.5
2672.68	6811
2671.18	6768.5
2669.67	6807.5
2668.17	6755
2666.66	6659.5
2665.16	6738.5
2663.66	6690.5
2662.15	6732
2660.64	6663.5
2659.14	6672.5
2657.63	6667.5
2656.13	6659.5
2654.62	6636.5
2653.11	6634.5
2651.6	6677.5
2650.09	6601
2648.58	6636.5
2647.08	6621
2645.57	6558.5
2644.06	6600.5
2642.55	6605
2641.04	6519
2639.52	6571
2638.01	6532.5
2636.5	6558.5
2634.99	6506
2633.48	6479
2631.96	6487
2630.45	6459
2628.94	6439
2627.42	6406.5
2625.91	6407.5
2624.39	6344
2622.88	6393.5
2621.36	6395.5
2619.85	6353
2618.33	6401
2616.81	6366
2615.3	6354
2613.78	6380.5
2612.26	6381.5
2610.74	6338
2609.22	6365.5
2607.7	6325.5
2606.18	6372.5
2604.66	6324
2603.14	6271.5
2601.62	6324
2600.1	6250.5
2598.58	6191
2597.06	6173
2595.54	6167.5
2594.01	6173
2592.49	6163
2590.97	6101
2589.44	6081.5
2587.92	6183
2586.39	6071.5
2584.87	6105.5
2583.34	6050
2581.82	6038
2580.29	6068.5
2578.76	6020
2577.24	6081
2575.71	6059.5
2574.18	6036.5
2572.65	6034
2571.13	6008
2569.6	6038
2568.07	5994
2566.54	6005.5
2565.01	5954
2563.48	6004.5
2561.95	5967.5
2560.42	5911.5
2558.88	5938
2557.35	5915
2555.82	5902
2554.29	5865
2552.75	5857
2551.22	5842
2549.69	5787
2548.15	5886
2546.62	5814.5
2545.08	5783
2543.55	5793
2542.01	5780.5
2540.47	5738
2538.94	5715
2537.4	5687.5
2535.86	5711.5
2534.33	5691
2532.79	5649.5
2531.25	5662.5
2529.71	5608
2528.17	5678.5
2526.63	5642
2525.09	5588
2523.55	5606.5
2522.01	5539
2520.47	5558.5
2518.92	5517.5
2517.38	5515
2515.84	5523
2514.3	5513
2512.75	5494
2511.21	5425
2509.67	5472
2508.12	5414.5
2506.58	5376
2505.03	5405.5
2503.49	5354
2501.94	5382.5
2500.39	5319.5
2498.85	5305
2497.3	5328
2495.75	5284
2494.2	5269
2492.65	5294
2491.11	5274
2489.56	5262
2488.01	5208
2486.46	5188
2484.91	5156
2483.36	5143.5
2481.8	5128.5
2480.25	5094
2478.7	5079
2477.15	5050.5
2475.6	5118
2474.04	5086.5
2472.49	5023.5
2470.93	5035
2469.38	4937
2467.83	4918.5
2466.27	4918
2464.71	4967
2463.16	4937.5
2461.6	4919
2460.05	4896.5
2458.49	4833.5
2456.93	4853
2455.37	4797
2453.81	4797
2452.26	4766
2450.7	4771
2449.14	4741.5
2447.58	4772
2446.02	4686
2444.46	4682
2442.9	4686
2441.33	4647.5
2439.77	4677.5
2438.21	4660
2436.65	4613.5
2435.08	4581.5
2433.52	4630
2431.96	4601.5
2430.39	4605.5
2428.83	4548.5
2427.26	4581
2425.7	4554.5
2424.13	4565
2422.56	4536.5
2421	4506.5
2419.43	4516
2417.86	4475
2416.3	4460
2414.73	4459
2413.16	4415
2411.59	4456
2410.02	4402
2408.45	4401.5
2406.88	4404
2405.31	4407
2403.74	4419.5
2402.17	4377
2400.6	4391
2399.02	4419.5
2397.45	4334.5
2395.88	4426.5
2394.3	4308
2392.73	4350
2391.16	4287.5
2389.58	4316.5
2388.01	4294.5
2386.43	4294.5
2384.86	4279.5
2383.28	4288
2381.7	4281
2380.13	4291.5
2378.55	4280
2376.97	4274
2375.39	4253.5
2373.81	4242.5
2372.23	4247
2370.65	4200.5
2369.07	4208
2367.49	4172
2365.91	4177.5
2364.33	4205.5
2362.75	4133
2361.17	4167
2359.59	4138
2358.01	4131.5
2356.42	4159
2354.84	4124
2353.25	4066
2351.67	4085.5
2350.09	4073.5
2348.5	4058
2346.92	4159
2345.33	4051
2343.74	4074
2342.16	4081.5
2340.57	4068.5
2338.98	4026
2337.39	4000.5
2335.81	3994
2334.22	3980
2332.63	3979.5
2331.04	3979
2329.45	4006.5
2327.86	3998
2326.27	3931.5
2324.68	3994
2323.09	3944
2321.49	3939
2319.9	3914.5
2318.31	3905.5
2316.72	3920
2315.12	3842.5
2313.53	3887
2311.93	3889.5
2310.34	3854.5
2308.74	3839.5
2307.15	3824.5
2305.55	3839
2303.96	3777
2302.36	3770.5
2300.76	3768.5
2299.17	3715.5
2297.57	3716
2295.97	3706
2294.37	3684.5
2292.77	3676
2291.17	3648.5
2289.57	3655.5
2287.97	3590
2286.37	3624.5
2284.77	3595
2283.17	3594.5
2281.57	3579
2279.96	3575
2278.36	3590.5
2276.76	3543
2275.15	3581.5
2273.55	3557
2271.95	3545
2270.34	3544.5
2268.74	3489.5
2267.13	3467
2265.52	3471.5
2263.92	3516
2262.31	3480
2260.7	3453.5
2259.1	3462
2257.49	3406.5
2255.88	3392.5
2254.27	3427.5
2252.66	3380
2251.05	3395
2249.44	3405
2247.83	3361.5
2246.22	3376.5
2244.61	3379.5
2243	3364
2241.39	3345.5
2239.77	3356
2238.16	3272.5
2236.55	3287.5
2234.93	3309
2233.32	3279
2231.7	3273.5
2230.09	3278.5
2228.47	3208
2226.86	3232.5
2225.24	3203
2223.63	3217.5
2222.01	3182
2220.39	3119.5
2218.77	3190
2217.16	3160.5
2215.54	3169
2213.92	3120.5
2212.3	3077.5
2210.68	3103
2209.06	3089
2207.44	3078
2205.82	3059.5
2204.19	3035.5
2202.57	3068
2200.95	3038.5
2199.33	3026.5
2197.7	3017
2196.08	3023
2194.46	3018
2192.83	3006.5
2191.21	2993.5
2189.58	3023.5
2187.96	2976
2186.33	2987
2184.7	2956
2183.08	2945.5
2181.45	2973
2179.82	2994.5
2178.19	2916
2176.57	2912
2174.94	2891
2173.31	2905.5
2171.68	2886.5
2170.05	2876.5
2168.42	2864
2166.79	2834
2165.16	2866.5
2163.52	2800.5
2161.89	2800
2160.26	2796
2158.63	2820.5
2156.99	2772.5
2155.36	2764
2153.73	2786.5
2152.09	2737.5
2150.46	2751
2148.82	2732
2147.18	2707.5
2145.55	2709.5
2143.91	2693.5
2142.27	2697
2140.64	2677
2139	2663
2137.36	2662
2135.72	2636
2134.08	2625
2132.44	2635
2130.8	2611.5
2129.16	2603
2127.52	2591
2125.88	2569.5
2124.24	2556
2122.6	2545.5
2120.95	2557.5
2119.31	2533
2117.67	2496
2116.02	2458.5
2114.38	2458.5
2112.74	2498
2111.09	2468.5
2109.45	2410
2107.8	2434.5
2106.15	2431.5
2104.51	2423.5
2102.86	2443.5
2101.21	2397.5
2099.56	2375
2097.92	2380
2096.27	2382.5
2094.62	2366.5
2092.97	2399
2091.32	2372.5
2089.67	2361
2088.02	2367.5
2086.37	2351
2084.72	2350.5
2083.06	2380.5
2081.41	2354.5
2079.76	2353
2078.1	2319.5
2076.45	2322.5
2074.8	2334
2073.14	2306.5
2071.49	2332
2069.83	2320
2068.18	2302
2066.52	2270.5
2064.86	2283.5
2063.21	2289
2061.55	2264
2059.89	2255.5
2058.23	2258
2056.57	2263.5
2054.92	2227
2053.26	2228
2051.6	2219
2049.94	2206
2048.27	2246
2046.61	2204
2044.95	2194
2043.29	2184
2041.63	2167.5
2039.97	2185
2038.3	2142
2036.64	2150.5
2034.97	2138.5
2033.31	2128
2031.64	2133
2029.98	2070.5
2028.31	2103.5
2026.65	2057.5
2024.98	2073
2023.31	2040.5
2021.65	2066.5
2019.98	2028
2018.31	2039
2016.64	1999
2014.97	1991.5
2013.3	2011
2011.63	2025.5
2009.96	1986
2008.29	1992
2006.62	1964
2004.95	1971
2003.28	1961
2001.6	1985.5
1999.93	1975.5
1998.26	1955
1996.58	1980
1994.91	1942
1993.24	1943
1991.56	1903
1989.89	1912
1988.21	1906
1986.53	1905.5
1984.86	1901.5
1983.18	1886
1981.5	1854.5
1979.82	1849
1978.15	1844.5
1976.47	1831.5
1974.79	1849.5
1973.11	1850
1971.43	1825
1969.75	1837
1968.07	1813
1966.38	1793
1964.7	1807
1963.02	1777.5
1961.34	1764
1959.66	1757
1957.97	1746.5
1956.29	1758
1954.6	1736.5
1952.92	1751.5
1951.23	1722
1949.55	1727
1947.86	1706.5
1946.18	1714
1944.49	1703
1942.8	1698
1941.11	1686.5
1939.43	1691.5
1937.74	1669.5
1936.05	1671
1934.36	1655
1932.67	1665
1930.98	1641.5
1929.29	1622.5
1927.6	1623
1925.91	1631.5
1924.21	1617
1922.52	1622
1920.83	1611.5
1919.14	1582
1917.44	1586
1915.75	1577.5
1914.05	1597
1912.36	1600
1910.66	1571.5
1908.97	1551.5
1907.27	1553
1905.58	1559.5
1903.88	1585.5
1902.18	1529.5
1900.48	1513.5
1898.79	1516
1897.09	1508.5
1895.39	1493
1893.69	1477
1891.99	1463
1890.29	1490.5
1888.59	1444
1886.89	1471.5
1885.18	1448.5
1883.48	1434.5
1881.78	1406
1880.08	1403
1878.37	1414
1876.67	1422
1874.96	1387.5
1873.26	1377.5
1871.55	1392
1869.85	1343.5
1868.14	1386.5
1866.44	1381.5
1864.73	1372
1863.02	1367.5
1861.32	1348
1859.61	1362.5
1857.9	1339.5
1856.19	1331.5
1854.48	1309.5
1852.77	1319.5
1851.06	1326
1849.35	1285
1847.64	1321
1845.93	1299
1844.21	1308.5
1842.5	1295.5
1840.79	1283.5
1839.08	1287.5
1837.36	1293.5
1835.65	1293
1833.93	1254
1832.22	1290.5
1830.5	1256
1828.79	1245
1827.07	1239
1825.36	1219.5
1823.64	1227.5
1821.92	1208
1820.2	1224.5
1818.48	1215.5
1816.77	1192
1815.05	1224.5
1813.33	1233
1811.61	1206.5
1809.89	1194
1808.16	1187.5
1806.44	1168
1804.72	1154
1803	1153
1801.28	1148
1799.55	1161.5
1797.83	1160
1796.11	1142.5
1794.38	1152
1792.66	1133
1790.93	1138
1789.21	1132
1787.48	1110
1785.75	1122
1784.03	1102
1782.3	1101
1780.57	1082.5
1778.84	1092
1777.11	1111
1775.38	1076
1773.66	1103.5
1771.93	1082
1770.19	1083.5
1768.46	1086.5
1766.73	1080
1765	1099.5
1763.27	1085.5
1761.54	1083
1759.8	1096
1758.07	1127
1756.34	1114
1754.6	1134
1752.87	1157
1751.13	1140
1749.4	1143.5
1747.66	1150
1745.92	1142.5
1744.19	1132
1742.45	1132
1740.71	1128
1738.97	1117
1737.23	1101
1735.49	1083.5
1733.75	1077.5
1732.01	1070.5
1730.27	1064
1728.53	1043
1726.79	1028
1725.05	1040
1723.31	1002
1721.57	994.5
1719.82	999.5
1718.08	998.5
1716.34	997.5
1714.59	993.5
1712.85	994.5
1711.1	973
1709.36	974.5
1707.61	971
1705.86	955.5
1704.12	942.5
1702.37	933.5
1700.62	951
1698.87	951
1697.12	935
1695.37	923.5
1693.62	924
1691.87	920
1690.12	884
1688.37	914
1686.62	905.5
1684.87	890.5
1683.12	907.5
1681.36	899.5
1679.61	903.5
1677.86	930
1676.1	904.5
1674.35	929.5
1672.59	938
1670.84	939.5
1669.08	955
1667.33	1006.5
1665.57	1035.5
1663.81	1094
1662.06	1129
1660.3	1157
1658.54	1156
1656.78	1176
1655.02	1130.5
1653.26	1155
1651.5	1072.5
1649.74	1049.5
1647.98	1010.5
1646.22	960.5
1644.46	939
1642.7	903.5
1640.93	881.5
1639.17	875
1637.41	846
1635.64	840
1633.88	858
1632.11	813
1630.35	835
1628.58	832
1626.81	805
1625.05	818
1623.28	803.5
1621.51	793.5
1619.75	783
1617.98	780.5
1616.21	777
1614.44	777.5
1612.67	791
1610.9	789.5
1609.13	758.5
1607.36	763
1605.58	770
1603.81	759.5
1602.04	780.5
1600.27	756.5
1598.49	772
1596.72	741
1594.95	746
1593.17	773
1591.4	757
1589.62	755
1587.84	746
1586.07	752
1584.29	749
1582.51	736
1580.74	751
1578.96	734
1577.18	719
1575.4	718.5
1573.62	712.5
1571.84	728.5
1570.06	711
1568.28	724.5
1566.5	726
1564.72	708
1562.93	711.5
1561.15	711
1559.37	713.5
1557.58	713
1555.8	722.5
1554.02	704.5
1552.23	700.5
1550.45	689
1548.66	691.5
1546.87	705.5
1545.09	685.5
1543.3	693.5
1541.51	660.5
1539.72	656
1537.94	666.5
1536.15	658
1534.36	675.5
1532.57	678.5
1530.78	659
1528.99	661
1527.2	675
1525.4	653.5
1523.61	661
1521.82	657.5
1520.03	669.5
1518.23	653
1516.44	644
1514.65	659
1512.85	650
1511.06	657.5
1509.26	635
1507.46	642.5
1505.67	671
1503.87	648.5
1502.07	665
1500.28	676.5
1498.48	665
1496.68	663.5
1494.88	676
1493.08	666
1491.28	662
1489.48	695.5
1487.68	699
1485.88	707
1484.08	730
1482.27	717
1480.47	753
1478.67	770.5
1476.86	793
1475.06	827.5
1473.25	864.5
1471.45	900
1469.64	948.5
1467.84	991
1466.03	1045
1464.23	1091.5
1462.42	1113
1460.61	1169
1458.8	1212
1456.99	1225.5
1455.18	1246.5
1453.37	1278
1451.56	1307.5
1449.75	1348.5
1447.94	1388.5
1446.13	1417
1444.32	1468
1442.51	1484.5
1440.7	1486
1438.88	1495
1437.07	1369
1435.26	1278
1433.44	1183.5
1431.63	1073
1429.81	966.5
1427.99	893
1426.18	860
1424.36	813
1422.54	782
1420.73	768
1418.91	733.5
1417.09	708.5
1415.27	689
1413.45	667
1411.63	653
1409.81	635.5
1407.99	624
1406.17	634.5
1404.35	589.5
1402.53	612.5
1400.7	611
1398.88	606
1397.06	581
1395.23	572.5
1393.41	574
1391.58	574.5
1389.76	568
1387.93	576.5
1386.11	577.5
1384.28	567.5
1382.45	557
1380.62	552
1378.8	572
1376.97	575.5
1375.14	588
1373.31	585.5
1371.48	596.5
1369.65	587
1367.82	592
1365.99	586.5
1364.16	576
1362.32	587.5
1360.49	581
1358.66	569
1356.82	572
1354.99	558
1353.16	563
1351.32	566.5
1349.48	566
1347.65	568.5
1345.81	556
1343.98	565
1342.14	568
1340.3	569.5
1338.46	579.5
1336.62	576.5
1334.79	592.5
1332.95	602.5
1331.11	617.5
1329.27	635
1327.42	636.5
1325.58	675.5
1323.74	698.5
1321.9	700
1320.06	738
1318.21	773
1316.37	822
1314.53	840.5
1312.68	863
1310.84	923.5
1308.99	942.5
1307.15	1027
1305.3	1092
1303.45	1100.5
1301.61	1131
1299.76	1134
1297.91	1132.5
1296.06	1061.5
1294.21	980.5
1292.36	910
1290.51	852
1288.66	812.5
1286.81	791
1284.96	739
1283.11	756.5
1281.26	742.5
1279.4	752.5
1277.55	743
1275.7	742
1273.84	763
1271.99	758.5
1270.13	774
1268.28	769.5
1266.42	765.5
1264.56	752
1262.71	765
1260.85	743
1258.99	727
1257.13	694
1255.27	687.5
1253.41	664.5
1251.56	656
1249.7	629.5
1247.83	603.5
1245.97	585
1244.11	584.5
1242.25	557
1240.39	556.5
1238.52	520
1236.66	537
1234.8	521
1232.93	523.5
1231.07	521.5
1229.2	517.5
1227.34	491
1225.47	512
1223.6	497
1221.74	482
1219.87	501
1218	481
1216.13	476.5
1214.26	478
1212.39	471
1210.53	476
1208.65	450
1206.78	463
1204.91	471.5
1203.04	454
1201.17	466.5
1199.3	460.5
1197.42	477
1195.55	444
1193.68	458.5
1191.8	453.5
1189.93	442
1188.05	442
1186.17	455.5
1184.3	465.5
1182.42	445
1180.54	461.5
1178.67	457.5
1176.79	445
1174.91	456
1173.03	470.5
1171.15	440
1169.27	441.5
1167.39	454
1165.51	469.5
1163.63	461.5
1161.75	439
1159.86	455.5
1157.98	471
1156.1	450
1154.21	452
1152.33	453
1150.44	464
1148.56	458
1146.67	453.5
1144.79	472
1142.9	477
1141.01	486.5
1139.12	496.5
1137.24	510
1135.35	544
1133.46	592
1131.57	617.5
1129.68	649
1127.79	645.5
1125.9	640
1124.01	617.5
1122.12	607.5
1120.22	591.5
1118.33	588.5
1116.44	582.5
1114.54	569
1112.65	569
1110.75	574.5
1108.86	596
1106.96	581.5
1105.07	621
1103.17	641
1101.27	656
1099.38	672.5
1097.48	683
1095.58	717
1093.68	715
1091.78	713
1089.88	761.5
1087.98	782.5
1086.08	794
1084.18	803.5
1082.28	795.5
1080.38	800
1078.47	808
1076.57	784
1074.67	754
1072.76	754
1070.86	776.5
1068.95	776.5
1067.05	817
1065.14	843
1063.24	847
1061.33	824.5
1059.42	761.5
1057.51	683
1055.6	651
1053.7	631.5
1051.79	598.5
1049.88	589.5
1047.97	586.5
1046.06	581
1044.14	581
1042.23	554
1040.32	589.5
1038.41	566.5
1036.5	565
1034.58	567.5
1032.67	570
1030.75	565.5
1028.84	566.5
1026.92	550
1025.01	562
1023.09	563.5
1021.17	575
1019.26	563.5
1017.34	556.5
1015.42	550
1013.5	538
1011.58	540.5
1009.66	522
1007.74	542.5
1005.82	532
1003.9	511
1001.98	536.5
1000.06	524.5
998.134	538.5
996.212	522
994.288	523
992.364	535.5
990.44	562
988.515	581
986.589	562
984.663	607
982.737	590
980.81	622
978.883	654
976.955	665
975.027	674
973.098	684.5
971.169	670
969.239	681
967.308	656
965.378	670.5
963.447	669
961.516	651.5
959.583	679.5
957.65	664.5
955.718	695
953.784	677
951.85	678.5
949.916	690.5
947.981	688
946.045	704.5
944.109	708
942.173	738.5
940.236	727.5
938.298	698.5
936.36	725
934.422	702.5
932.484	659
930.544	655.5
928.604	630
926.664	621.5
924.724	617
922.782	628.5
920.84	623
918.898	607
916.955	609
915.012	613.5
913.068	619.5
911.124	630
909.18	618
907.235	630
905.289	631
903.343	615
901.397	634
899.45	631
897.502	675.5
895.554	696
893.605	715
891.657	739
889.707	731.5
887.758	722
885.807	696.5
883.856	698
881.905	706
879.953	706.5
878.001	718
876.048	744.5
874.094	753
872.14	745
870.186	716
868.232	741.5
866.276	720
864.321	714
862.365	717
860.408	695.5
858.451	706
856.493	691
854.535	664.5
852.576	695
850.617	688
848.658	691
846.698	687
844.737	686.5
842.776	692.5
840.814	669
838.852	639.5
836.89	633.5
834.927	621
832.963	594
830.999	575
829.035	583
827.07	583
825.105	558
823.139	550.5
821.172	546.5
819.206	515
817.238	526
815.27	522.5
813.301	487
811.333	489
809.363	492
807.394	488
805.424	463
803.453	465.5
801.482	455
799.509	466.5
797.538	457.5
795.565	446
793.592	432
791.618	412
789.643	417.5
787.669	408.5
785.693	421
783.718	421
781.742	409.5
779.765	408
777.788	418.5
775.811	425.5
773.832	431.5
771.853	418.5
769.875	411.5
767.895	402.5
765.915	415
763.934	413.5
761.953	402.5
759.972	412.5
757.99	418
756.007	410
754.024	403
752.041	406
750.056	421.5
748.072	430
746.087	432
744.102	414
742.116	417.5
740.13	428
738.143	415
736.155	422
734.167	413
732.179	413
730.19	435
728.2	432
726.21	439
724.22	427.5
722.229	430
720.237	432.5
718.246	414.5
716.253	416.5
714.26	400.5
712.267	407
710.273	404
708.279	403.5
706.284	387.5
704.289	389
702.293	392.5
700.296	389.5
698.3	387.5
696.303	389
694.305	379.5
692.307	390
690.307	377
688.308	379
686.309	382.5
684.308	383
682.308	381.5
680.306	386
678.304	381
676.302	404
674.3	399.5
672.296	386.5
670.293	397.5
668.289	403.5
666.284	400
664.278	395
662.273	408.5
660.266	409.5
658.26	392
656.252	396.5
654.244	401
652.237	395
650.227	403
648.218	415.5
646.209	413
644.198	410.5
642.188	415.5
640.177	433.5
638.165	408.5
636.153	422
634.14	417
632.128	439
630.113	425
628.099	442.5
626.085	423
624.07	448.5
622.054	448.5
620.038	456.5
618.021	447
616.004	457
613.986	443
611.968	462
609.949	464.5
607.93	471
605.911	481.5
603.891	471
601.87	462.5
599.848	463
597.827	453.5
595.805	448.5
593.782	470
591.759	452
589.735	448
587.711	439
585.687	457
583.661	443.5
581.636	446.5
579.609	448
577.583	448
575.555	440
573.527	449.5
571.5	447.5
569.471	454.5
567.441	451.5
565.412	442
563.382	440
561.351	449
559.32	457
557.289	445
555.257	469
553.223	478.5
551.19	498.5
549.157	505.5
547.122	508
545.088	533.5
543.053	555.5
541.017	586.5
538.981	631.5
536.943	697
534.907	793
532.869	971.5
530.831	1242.5
528.792	1803
526.752	2676.5
524.713	3981.5
522.673	5246.5
520.632	5395
518.591	4539.5
516.549	3374
514.507	2250.5
512.464	1558
510.42	1138
508.377	842
506.332	749
504.288	674.5
502.242	642.5
500.196	608
498.15	576.5
496.104	587
494.056	584
492.008	565
489.96	565
487.911	552.5
485.862	565
483.812	554.5
481.761	535.5
479.71	542.5
477.659	529.5
475.607	539
473.555	538
471.502	520
469.448	532
467.395	538.5
465.34	542.5
463.285	531.5
461.23	534.5
459.174	545
457.118	541
455.061	542.5
453.003	547.5
450.945	543.5
448.887	564
446.828	565
444.768	572
442.708	557
440.647	576.5
438.587	581.5
436.525	573
434.463	579
432.4	583.5
430.337	576.5
428.274	596
426.21	591
424.145	587
422.079	601.5
420.014	595.5
417.948	605.5
415.882	611
413.814	600
411.746	608.5
409.679	619
407.609	621.5
405.54	617
403.47	606
401.401	626
399.329	622
397.258	616.5
395.187	613.5
393.114	602
391.041	626
388.968	605.5
386.895	602.5
384.82	608
382.745	633.5
380.67	624.5
378.594	642
376.517	640.5
374.44	629.5
372.363	635
370.286	653.5
368.207	661.5
366.128	660
364.049	648.5
361.969	649
359.888	652.5
357.807	649
355.725	650
353.643	666.5
351.561	660
349.477	674.5
347.394	675
345.31	672.5
343.226	669.5
341.141	684.5
339.055	702
336.968	696
334.882	712.5
332.795	705.5
330.707	717
328.618	717
326.53	722
324.44	734.5
322.351	754.5
320.26	754.5
318.17	773
316.078	802
313.987	806
311.895	836.5
309.802	825
307.708	866
305.614	906
303.52	880.5
301.425	902.5
299.329	903
297.233	893.5
295.137	867.5
293.039	842.5
290.942	866.5
288.844	847
286.745	858.5
284.647	845.5
282.546	849
280.446	849
278.346	848
276.245	874
274.143	887
272.041	869
269.939	851
267.835	863
265.731	895
263.627	874.5
261.522	898.5
259.417	895.5
257.311	891.5
255.204	910.5
253.098	907.5
250.99	922
248.882	920.5
246.774	926.5
244.664	950
242.555	961.5
240.445	964
238.334	999.5
236.223	983
234.112	1008.5
232	1004
229.888	1016.5
227.775	1042.5
225.661	1038
223.546	1047.5
221.431	1049
219.316	1032
217.201	1044.5
215.084	1060
212.967	1058
210.85	1051.5
208.732	1054
206.614	1074.5
204.495	1080
202.375	1067
200.256	1066
198.135	1042
196.014	1085
193.893	1069.5
191.771	1049.5
189.648	1031.5
187.525	1075
185.401	1065
183.277	1047
181.152	1068
179.027	1064
176.901	1054
174.775	1093.5
172.648	1079.5
170.521	1087.5
168.393	1087.5
166.265	1122
164.136	1121.5
162.007	1138.5
159.876	1139.5
157.746	1158
155.615	1202.5
153.483	1224.5
151.351	1223
149.219	1276.5
147.086	1335.5
144.952	1362.5
142.818	1379
140.684	1378
138.548	1440.5
136.413	1490.5
134.276	1484.5
132.139	1573
130.002	1594
127.864	1651
125.725	1680
123.587	1743.5
121.447	1779
119.307	1875
117.166	1925
115.026	1965.5
112.885	2029.5
110.743	2119.5
108.6	2171
106.456	2191
104.313	2214.5
102.169	2233
100.023	2142
97.8789	2085.5
95.7328	1878.5
93.5869	1668.5
91.4392	1413
89.2919	1165.5
87.1447	933
84.9959	702.5
