3528.51	158.5
3527.23	162
3525.95	171.5
3524.67	182
3523.39	185
3522.1	170.5
3520.82	183
3519.54	179
3518.26	187
3516.97	183
3515.69	182
3514.4	174
3513.12	190.5
3511.84	181.5
3510.55	190
3509.26	185
3507.98	176.5
3506.69	187
3505.41	190.5
3504.12	199
3502.83	188
3501.54	209
3500.26	207.5
3498.97	202
3497.68	216
3496.39	215
3495.1	217.5
3493.81	213
3492.52	227
3491.23	226
3489.94	228.5
3488.65	228
3487.36	244
3486.07	234.5
3484.78	240
3483.49	241
3482.19	254.5
3480.9	237
3479.61	246.5
3478.31	256
3477.02	257
3475.73	260
3474.43	263
3473.14	264
3471.84	268.5
3470.54	268.5
3469.25	275
3467.95	284
3466.66	285
3465.36	277
3464.06	274
3462.76	292.5
3461.46	271.5
3460.17	298
3458.87	281.5
3457.57	285
3456.27	296
3454.97	297.5
3453.67	287
3452.37	295.5
3451.07	303
3449.77	309
3448.47	293
3447.16	316.5
3445.86	320.5
3444.56	340.5
3443.26	342.5
3441.95	338.5
3440.65	332.5
3439.35	355
3438.04	337
3436.74	359.5
3435.43	374
3434.13	380.5
3432.82	382
3431.52	386
3430.21	377.5
3428.9	388
3427.6	407.5
3426.29	404
3424.98	420.5
3423.67	425.5
3422.36	423.5
3421.06	430.5
3419.75	441.5
3418.44	444
3417.13	459.5
3415.82	468.5
3414.51	463
3413.2	475
3411.88	477.5
3410.57	482.5
3409.26	494.5
3407.95	487
3406.64	487
3405.32	479
3404.01	492
3402.7	497
3401.38	500.5
3400.07	503
3398.75	510
3397.44	515.5
3396.12	540
3394.81	524.5
3393.49	527
3392.18	523.5
3390.86	530.5
3389.54	537.5
3388.23	544
3386.91	540.5
3385.59	559.5
3384.27	556
3382.95	568
3381.63	571
3380.31	586.5
3378.99	568.5
3377.67	596.5
3376.35	588
3375.03	585
3373.71	582.5
3372.39	602
3371.07	594
3369.75	622.5
3368.42	636.5
3367.1	622
3365.78	616
3364.45	628.5
3363.13	668
3361.81	633
3360.48	630
3359.16	657.5
3357.83	668.5
3356.51	631.5
3355.18	659.5
3353.85	660
3352.53	659.5
3351.2	661
3349.87	654
3348.54	681.5
3347.22	655.5
3345.89	681.5
3344.56	674
3343.23	676.5
3341.9	679.5
3340.57	691.5
3339.24	686
3337.91	691
3336.58	701.5
3335.25	696.5
3333.92	703.5
3332.58	702
3331.25	708.5
3329.92	711
3328.59	700
3327.25	714.5
3325.92	716
3324.58	712.5
3323.25	724.5
3321.92	740
3320.58	731
3319.25	724.5
3317.91	743.5
3316.57	749
3315.24	743.5
3313.9	753
3312.56	750
3311.23	748
3309.89	748
3308.55	774.5
3307.21	756.5
3305.87	790.5
3304.53	775.5
3303.19	773
3301.85	785
3300.51	780
3299.17	777.5
3297.83	795.5
3296.49	813.5
3295.15	813
3293.81	792
3292.46	796
3291.12	814.5
3289.78	813.5
3288.43	812.5
3287.09	814.5
3285.75	814.5
3284.4	824.5
3283.06	832.5
3281.71	825
3280.37	842.5
3279.02	841
3277.67	815.5
3276.33	841.5
3274.98	864.5
3273.63	852.5
3272.28	850.5
3270.94	881.5
3269.59	870
3268.24	886.5
3266.89	888.5
3265.54	894.5
3264.19	919
3262.84	925.5
3261.49	926
3260.14	957
3258.79	943.5
3257.44	981
3256.08	991.5
3254.73	1009.5
3253.38	1028
3252.03	1072
3250.67	1079
3249.32	1100
3247.96	1137.5
3246.61	1157.5
3245.26	1191
3243.9	1211.5
3242.54	1231.5
3241.19	1278.5
3239.83	1314
3238.48	1339.5
3237.12	1375
3235.76	1424
3234.41	1427
3233.05	1492
3231.69	1521.5
3230.33	1567.5
3228.97	1585
3227.61	1606
3226.25	1627.5
3224.89	1672.5
3223.53	1716.5
3222.17	1731
3220.81	1719
3219.45	1778
3218.09	1782.5
3216.72	1829
3215.36	1825
3214	1843
3212.63	1873.5
3211.27	1918
3209.91	1890
3208.54	1915
3207.18	1941.5
3205.81	1924.5
3204.45	1948.5
3203.08	1959
3201.71	1972.5
3200.35	1973.5
3198.98	2015
3197.61	2020
3196.25	2025
3194.88	2025
3193.51	2039.5
3192.14	2038
3190.77	2045
3189.4	2051.5
3188.03	2061.5
3186.66	2079
3185.29	2091
3183.92	2097
3182.55	2113
3181.18	2095
3179.81	2126.5
3178.44	2165
3177.06	2167
3175.69	2193.5
3174.32	2186
3172.94	2196.5
3171.57	2224.5
3170.2	2211.5
3168.82	2282
3167.45	2259.5
3166.07	2276
3164.69	2327.5
3163.32	2322
3161.94	2318.5
3160.56	2356
3159.19	2364
3157.81	2393.5
3156.43	2400
3155.05	2454
3153.67	2414
3152.3	2454.5
3150.92	2486
3149.54	2502.5
3148.16	2492.5
3146.78	2522
3145.4	2561.5
3144.01	2552.5
3142.63	2548.5
3141.25	2596
3139.87	2600
3138.49	2647.5
3137.1	2667
3135.72	2671
3134.34	2647.5
3132.95	2655.5
3131.57	2683
3130.18	2688
3128.8	2725.5
3127.41	2776
3126.03	2769
3124.64	2806
3123.25	2815
3121.87	2814
3120.48	2863.5
3119.09	2855.5
3117.7	2902.5
3116.32	2890.5
3114.93	2925
3113.54	2900.5
3112.15	2924.5
3110.76	2943.5
3109.37	2956.5
3107.98	2935.5
3106.59	2985
3105.2	2992
3103.8	2984.5
3102.41	3037.5
3101.02	3032
3099.63	3052
3098.23	3070.5
3096.84	3037
3095.45	3060.5
3094.05	3113.5
3092.66	3135
3091.26	3103
3089.87	3103
3088.47	3164.5
3087.08	3146
3085.68	3134
3084.28	3150
3082.89	3200
3081.49	3170
3080.09	3203
3078.69	3167.5
3077.3	3216.5
3075.9	3231
3074.5	3228
3073.1	3248
3071.7	3213.5
3070.3	3271
3068.9	3309.5
3067.5	3253.5
3066.09	3297
3064.69	3268.5
3063.29	3259.5
3061.89	3274
3060.48	3274.5
3059.08	3322.5
3057.68	3345
3056.27	3369.5
3054.87	3338
3053.46	3375.5
3052.06	3394.5
3050.65	3379
3049.25	3425.5
3047.84	3406
3046.44	3419.5
3045.03	3420
3043.62	3401
3042.21	3438
3040.81	3474
3039.4	3471
3037.99	3488.5
3036.58	3483
3035.17	3510
3033.76	3518
3032.35	3527.5
3030.94	3507
3029.53	3519.5
3028.12	3531
3026.71	3574
3025.29	3581.5
3023.88	3566.5
3022.47	3564.5
3021.06	3539.5
3019.64	3609.5
3018.23	3588.5
3016.82	3581
3015.4	3595.5
3013.99	3566
3012.57	3610
3011.15	3653.5
3009.74	3636
3008.32	3651.5
3006.91	3662.5
3005.49	3670
3004.07	3682
3002.65	3662
3001.24	3693.5
2999.82	3744
2998.4	3671.5
2996.98	3688
2995.56	3729.5
2994.14	3756
2992.72	3735.5
2991.3	3775
2989.88	3789
2988.46	3776
2987.03	3850
2985.61	3845.5
2984.19	3853.5
2982.77	3926
2981.34	3903
2979.92	3910
2978.49	3939
2977.07	3979.5
2975.65	3993
2974.22	4032.5
2972.79	4017.5
2971.37	4025
2969.94	4060.5
2968.52	4056.5
2967.09	4076.5
2965.66	4089
2964.23	4144.5
2962.81	4121.5
2961.38	4120.5
2959.95	4172
2958.52	4210
2957.09	4207.5
2955.66	4203.5
2954.23	4230.5
2952.8	4212.5
2951.37	4216.5
2949.94	4241.5
2948.5	4280
2947.07	4251.5
2945.64	4289.5
2944.21	4281
2942.77	4292
2941.34	4302.5
2939.91	4338.5
2938.47	4338.5
2937.04	4368.5
2935.6	4392.5
2934.17	4391.5
2932.73	4427
2931.29	4461.5
2929.86	4473.5
2928.42	4507.5
2926.98	4470.5
2925.55	4551.5
2924.11	4489.5
2922.67	4494
2921.23	4561.5
2919.79	4549.5
2918.35	4619
2916.91	4625
2915.47	4619
2914.03	4587.5
2912.59	4598.5
2911.15	4615
2909.71	4641
2908.26	4630.5
2906.82	4643.5
2905.38	4681.5
2903.94	4659
2902.49	4678
2901.05	4685
2899.6	4685
2898.16	4730.5
2896.71	4737.5
2895.27	4783.5
2893.82	4747.5
2892.38	4767
2890.93	4761
2889.48	4720
2888.03	4808.5
2886.59	4739
2885.14	4794.5
2883.69	4756
2882.24	4779.5
2880.79	4814
2879.34	4817
2877.89	4831
2876.44	4817
2874.99	4805.5
2873.54	4825.5
2872.09	4780
2870.64	4759
2869.18	4775.5
2867.73	4850
2866.28	4862
2864.83	4863.5
2863.37	4859
2861.92	4821.5
2860.46	4812
2859.01	4861.5
2857.55	4847.5
2856.1	4838.5
2854.64	4835
2853.19	4854.5
2851.73	4836
2850.27	4877
2848.81	4846.5
2847.36	4804
2845.9	4811
2844.44	4796
2842.98	4806
2841.52	4743
2840.06	4748
2838.6	4722
2837.14	4683.5
2835.68	4673.5
2834.22	4662.5
2832.76	4675
2831.3	4645.5
2829.83	4622.5
2828.37	4656
2826.91	4617
2825.44	4583
2823.98	4579.5
2822.52	4567.5
2821.05	4563
2819.59	4498
2818.12	4511
2816.66	4501
2815.19	4514
2813.72	4463
2812.26	4483.5
2810.79	4492
2809.32	4462.5
2807.85	4478.5
2806.38	4480
2804.92	4419
2803.45	4438
2801.98	4399
2800.51	4453.5
2799.04	4434
2797.57	4477
2796.1	4396.5
2794.62	4370
2793.15	4416.5
2791.68	4407.5
2790.21	4454.5
2788.73	4406
2787.26	4402
2785.79	4403
2784.31	4349.5
2782.84	4390
2781.36	4405.5
2779.89	4422
2778.41	4443
2776.94	4410.5
2775.46	4401
2773.99	4409
2772.51	4428
2771.03	4439
2769.55	4447
2768.07	4471.5
2766.6	4489.5
2765.12	4463.5
2763.64	4431.5
2762.16	4506.5
2760.68	4448
2759.2	4429
2757.72	4503.5
2756.24	4425
2754.75	4466
2753.27	4470.5
2751.79	4452.5
2750.31	4461.5
2748.82	4432.5
2747.34	4430
2745.86	4469.5
2744.37	4455.5
2742.89	4438
2741.4	4385.5
2739.92	4411
2738.43	4400.5
2736.94	4410.5
2735.46	4417.5
2733.97	4410
2732.48	4418
2731	4439.5
2729.51	4466.5
2728.02	4452.5
2726.53	4418.5
2725.04	4399
2723.55	4398.5
2722.06	4430
2720.57	4452.5
2719.08	4432
2717.59	4392
2716.1	4447
2714.61	4407.5
2713.11	4421
2711.62	4406
2710.13	4451.5
2708.64	4388
2707.14	4435.5
2705.65	4438
2704.15	4403.5
2702.66	4365.5
2701.16	4355.5
2699.67	4350.5
2698.17	4381
2696.67	4393.5
2695.18	4336.5
2693.68	4361.5
2692.18	4360
2690.69	4361
2689.19	4338.5
2687.69	4318
2686.19	4308.5
2684.69	4266
2683.19	4308
2681.69	4288.5
2680.19	4278
2678.69	4232
2677.19	4282
2675.68	4240
2674.18	4250
2672.68	4233
2671.18	4248
2669.67	4236.5
2668.17	4246
2666.66	4188.5
2665.16	4261.5
2663.66	4227
2662.15	4206
2660.64	4215
2659.14	4213
2657.63	4211
2656.13	4189.5
2654.62	4160
2653.11	4177
2651.6	4179
2650.09	4191.5
2648.58	4157
2647.08	4126
2645.57	4122.5
2644.06	4155.5
2642.55	4091
2641.04	4132
2639.52	4164.5
2638.01	4078.5
2636.5	4020.5
2634.99	4093.5
2633.48	4060.5
2631.96	4076.5
2630.45	4065
2628.94	4000.5
2627.42	3995
2625.91	3987
2624.39	3989
2622.88	3993.5
2621.36	3973
2619.85	4024.5
2618.33	3983.5
2616.81	3951.5
2615.3	3996
2613.78	3978
2612.26	4002
2610.74	3981.5
2609.22	3993.5
2607.7	3984.5
2606.18	3979.5
2604.66	3933
2603.14	3918
2601.62	3893.5
2600.1	3889.5
2598.58	3880
2597.06	3891.5
2595.54	3888.5
2594.01	3842.5
2592.49	3802
2590.97	3840.5
2589.44	3791.5
2587.92	3788
2586.39	3805.5
2584.87	3835.5
2583.34	3792.5
2581.82	3796.5
2580.29	3827.5
2578.76	3805
2577.24	3758
2575.71	3790
2574.18	3744
2572.65	3761.5
2571.13	3741.5
2569.6	3751
2568.07	3775
2566.54	3743
2565.01	3763
2563.48	3698.5
2561.95	3732
2560.42	3747
2558.88	3721
2557.35	3615
2555.82	3679
2554.29	3649.5
2552.75	3645.5
2551.22	3669.5
2549.69	3699
2548.15	3637.5
2546.62	3631
2545.08	3636.5
2543.55	3611.5
2542.01	3628.5
2540.47	3567.5
2538.94	3558.5
2537.4	3601.5
2535.86	3566
2534.33	3578.5
2532.79	3534.5
2531.25	3523
2529.71	3528.5
2528.17	3543
2526.63	3516
2525.09	3497.5
2523.55	3507
2522.01	3509.5
2520.47	3507
2518.92	3479
2517.38	3457.5
2515.84	3486
2514.3	3506
2512.75	3429.5
2511.21	3435.5
2509.67	3421.5
2508.12	3416
2506.58	3397
2505.03	3395.5
2503.49	3367
2501.94	3367.5
2500.39	3393.5
2498.85	3388.5
2497.3	3355
2495.75	3356
2494.2	3342
2492.65	3309
2491.11	3270
2489.56	3291
2488.01	3261.5
2486.46	3259.5
2484.91	3233.5
2483.36	3221
2481.8	3193.5
2480.25	3199
2478.7	3215
2477.15	3171.5
2475.6	3204.5
2474.04	3153
2472.49	3191
2470.93	3123.5
2469.38	3161.5
2467.83	3124
2466.27	3097
2464.71	3070.5
2463.16	3048
2461.6	3069.5
2460.05	3081.5
2458.49	3052
2456.93	3043
2455.37	3000.5
2453.81	3070
2452.26	3029.5
2450.7	3008.5
2449.14	2971.5
2447.58	2983
2446.02	2952
2444.46	2943.5
2442.9	2928.5
2441.33	2935.5
2439.77	2945.5
2438.21	2935.5
2436.65	2962.5
2435.08	2914.5
2433.52	2913
2431.96	2925
2430.39	2876
2428.83	2905
2427.26	2850.5
2425.7	2867.5
2424.13	2889.5
2422.56	2853
2421	2828
2419.43	2814.5
2417.86	2822
2416.3	2858.5
2414.73	2807.5
2413.16	2793.5
2411.59	2800.5
2410.02	2780
2408.45	2779
2406.88	2787
2405.31	2805.5
2403.74	2770.5
2402.17	2782
2400.6	2773
2399.02	2770.5
2397.45	2726
2395.88	2744.5
2394.3	2735.5
2392.73	2740
2391.16	2716
2389.58	2738.5
2388.01	2729.5
2386.43	2710
2384.86	2688
2383.28	2702
2381.7	2692
2380.13	2714
2378.55	2687.5
2376.97	2660
2375.39	2654.5
2373.81	2682.5
2372.23	2686.5
2370.65	2637.5
2369.07	2643.5
2367.49	2639.5
2365.91	2599.5
2364.33	2604
2362.75	2637
2361.17	2609
2359.59	2578
2358.01	2609
2356.42	2579
2354.84	2583
2353.25	2554
2351.67	2605.5
2350.09	2568
2348.5	2567
2346.92	2549.5
2345.33	2574.5
2343.74	2516.5
2342.16	2575
2340.57	2581
2338.98	2496
2337.39	2550.5
2335.81	2538
2334.22	2501.5
2332.63	2531.5
2331.04	2497.5
2329.45	2516
2327.86	2526
2326.27	2502.5
2324.68	2486
2323.09	2455
2321.49	2462
2319.9	2432.5
2318.31	2444.5
2316.72	2461
2315.12	2449
2313.53	2414.5
2311.93	2414.5
2310.34	2407.5
2308.74	2390
2307.15	2386
2305.55	2357
2303.96	2364.5
2302.36	2335.5
2300.76	2351
2299.17	2338
2297.57	2330.5
2295.97	2324.5
2294.37	2320
2292.77	2344
2291.17	2288
2289.57	2309
2287.97	2304
2286.37	2266
2284.77	2275.5
2283.17	2269.5
2281.57	2267.5
2279.96	2248
2278.36	2265.5
2276.76	2273
2275.15	2258.5
2273.55	2249
2271.95	2227
2270.34	2218
2268.74	2208.5
2267.13	2198
2265.52	2225.5
2263.92	2205.5
2262.31	2161.5
2260.7	2159.5
2259.1	2182
2257.49	2149
2255.88	2154
2254.27	2153
2252.66	2128.5
2251.05	2131.5
2249.44	2164
2247.83	2133
2246.22	2157
2244.61	2138.5
2243	2143
2241.39	2116.5
2239.77	2122
2238.16	2062.5
2236.55	2076.5
2234.93	2067
2233.32	2077
2231.7	2063
2230.09	2053.5
2228.47	2056.5
2226.86	2022.5
2225.24	2052
2223.63	2015
2222.01	2028
2220.39	1989
2218.77	2002
2217.16	1966
2215.54	1994.5
2213.92	1983
2212.3	1992
2210.68	2001
2209.06	1962
2207.44	1955.5
2205.82	1935.5
2204.19	1920
2202.57	1933
2200.95	1894.5
2199.33	1944.5
2197.7	1907
2196.08	1894.5
2194.46	1902.5
2192.83	1890
2191.21	1884
2189.58	1890
2187.96	1844.5
2186.33	1882
2184.7	1895.5
2183.08	1879
2181.45	1881
2179.82	1853.5
2178.19	1844
2176.57	1878.5
2174.94	1837.5
2173.31	1842.5
2171.68	1826
2170.05	1819.5
2168.42	1817
2166.79	1812
2165.16	1805
2163.52	1808.5
2161.89	1769
2160.26	1788.5
2158.63	1794
2156.99	1760.5
2155.36	1741
2153.73	1754
2152.09	1747.5
2150.46	1773.5
2148.82	1740
2147.18	1726.5
2145.55	1737.5
2143.91	1713.5
2142.27	1714.5
2140.64	1706.5
2139	1710
2137.36	1647
2135.72	1691
2134.08	1676.5
2132.44	1640
2130.8	1647.5
2129.16	1655
2127.52	1625.5
2125.88	1637.5
2124.24	1603
2122.6	1606.5
2120.95	1582.5
2119.31	1599
2117.67	1567
2116.02	1590
2114.38	1581
2112.74	1551.5
2111.09	1570
2109.45	1521.5
2107.8	1543.5
2106.15	1540.5
2104.51	1561
2102.86	1544.5
2101.21	1532
2099.56	1518.5
2097.92	1526.5
2096.27	1523
2094.62	1489
2092.97	1516
2091.32	1499.5
2089.67	1478
2088.02	1487
2086.37	1496.5
2084.72	1474.5
2083.06	1493
2081.41	1484
2079.76	1445.5
2078.1	1466
2076.45	1480
2074.8	1456
2073.14	1463.5
2071.49	1488
2069.83	1446
2068.18	1463.5
2066.52	1461
2064.86	1447
2063.21	1422
2061.55	1463
2059.89	1451.5
2058.23	1415
2056.57	1449
2054.92	1434
2053.26	1434
2051.6	1400
2049.94	1375
2048.27	1381.5
2046.61	1378
2044.95	1394.5
2043.29	1380
2041.63	1387.5
2039.97	1389
2038.3	1386.5
2036.64	1379
2034.97	1360
2033.31	1344
2031.64	1343.5
2029.98	1336
2028.31	1323
2026.65	1335
2024.98	1294.5
2023.31	1324
2021.65	1293
2019.98	1299.5
2018.31	1300
2016.64	1260.5
2014.97	1253.5
2013.3	1304
2011.63	1257.5
2009.96	1288
2008.29	1269
2006.62	1262
2004.95	1255
2003.28	1253.5
2001.6	1255
1999.93	1239.5
1998.26	1237
1996.58	1252
1994.91	1228.5
1993.24	1238
1991.56	1253.5
1989.89	1207
1988.21	1210.5
1986.53	1209.5
1984.86	1206
1983.18	1211
1981.5	1218
1979.82	1176.5
1978.15	1174
1976.47	1179.5
1974.79	1157
1973.11	1164
1971.43	1172
1969.75	1150.5
1968.07	1167
1966.38	1139.5
1964.7	1149.5
1963.02	1141
1961.34	1126
1959.66	1139.5
1957.97	1117.5
1956.29	1133
1954.6	1106.5
1952.92	1114.5
1951.23	1133
1949.55	1081.5
1947.86	1090
1946.18	1099.5
1944.49	1092
1942.8	1096
1941.11	1068.5
1939.43	1079
1937.74	1093
1936.05	1066.5
1934.36	1085
1932.67	1066
1930.98	1067.5
1929.29	1041
1927.6	1029.5
1925.91	1023
1924.21	1026.5
1922.52	1008
1920.83	1024.5
1919.14	1033.5
1917.44	1020.5
1915.75	1017.5
1914.05	1001.5
1912.36	990.5
1910.66	1021
1908.97	996.5
1907.27	993.5
1905.58	971.5
1903.88	987
1902.18	997
1900.48	987
1898.79	987.5
1897.09	967.5
1895.39	972
1893.69	977
1891.99	951
1890.29	950
1888.59	928
1886.89	940.5
1885.18	924.5
1883.48	948.5
1881.78	921
1880.08	911.5
1878.37	917.5
1876.67	902
1874.96	895.5
1873.26	913
1871.55	896
1869.85	888.5
1868.14	882
1866.44	868
1864.73	886.5
1863.02	869.5
1861.32	868
1859.61	854
1857.9	863
1856.19	861
1854.48	868.5
1852.77	871.5
1851.06	857
1849.35	849.5
1847.64	861.5
1845.93	850
1844.21	829.5
1842.5	834
1840.79	837
1839.08	836
1837.36	826
1835.65	814
1833.93	822.5
1832.22	803.5
1830.5	814
1828.79	818.5
1827.07	798.5
1825.36	798.5
1823.64	794.5
1821.92	809
1820.2	799.5
1818.48	785
1816.77	785
1815.05	780.5
1813.33	794
1811.61	786.5
1809.89	781
1808.16	769.5
1806.44	754
1804.72	771.5
1803	761
1801.28	749.5
1799.55	758.5
1797.83	765
1796.11	742.5
1794.38	750
1792.66	720
1790.93	717.5
1789.21	739
1787.48	719.5
1785.75	735
1784.03	709
1782.3	720
1780.57	728.5
1778.84	721
1777.11	712.5
1775.38	721
1773.66	719
1771.93	706
1770.19	718
1768.46	724.5
1766.73	717.5
1765	725
1763.27	722.5
1761.54	753
1759.8	735.5
1758.07	758.5
1756.34	757.5
1754.6	769
1752.87	780.5
1751.13	774.5
1749.4	779
1747.66	767.5
1745.92	781
1744.19	769
1742.45	771
1740.71	748
1738.97	753
1737.23	741
1735.49	702
1733.75	713.5
1732.01	716.5
1730.27	705
1728.53	700
1726.79	707
1725.05	692
1723.31	686.5
1721.57	684
1719.82	653
1718.08	664.5
1716.34	652
1714.59	641
1712.85	659.5
1711.1	635.5
1709.36	634
1707.61	652
1705.86	650.5
1704.12	636
1702.37	619.5
1700.62	622
1698.87	619
1697.12	621
1695.37	620.5
1693.62	627
1691.87	608
1690.12	631
1688.37	628
1686.62	615
1684.87	603.5
1683.12	610.5
1681.36	608
1679.61	615
1677.86	614
1676.1	642
1674.35	662
1672.59	651
1670.84	667
1669.08	686
1667.33	699
1665.57	730
1663.81	787
1662.06	810
1660.3	857
1658.54	869
1656.78	880
1655.02	849
1653.26	842.5
1651.5	816
1649.74	773
1647.98	715
1646.22	685
1644.46	665.5
1642.7	640.5
1640.93	627.5
1639.17	604.5
1637.41	602
1635.64	581.5
1633.88	577
1632.11	582
1630.35	566.5
1628.58	543
1626.81	575.5
1625.05	569.5
1623.28	562.5
1621.51	546
1619.75	553
1617.98	537
1616.21	533.5
1614.44	532.5
1612.67	544.5
1610.9	517
1609.13	520
1607.36	534.5
1605.58	533.5
1603.81	523.5
1602.04	531
1600.27	516.5
1598.49	529.5
1596.72	510
1594.95	509
1593.17	519
1591.4	494.5
1589.62	525
1587.84	514
1586.07	522.5
1584.29	539.5
1582.51	510
1580.74	508.5
1578.96	502.5
1577.18	485.5
1575.4	500.5
1573.62	490
1571.84	500.5
1570.06	491.5
1568.28	494
1566.5	498.5
1564.72	501.5
1562.93	474
1561.15	487.5
1559.37	498
1557.58	506.5
1555.8	496
1554.02	492
1552.23	492
1550.45	495
1548.66	474
1546.87	493.5
1545.09	475.5
1543.3	480
1541.51	476
1539.72	472.5
1537.94	475
1536.15	472
1534.36	478
1532.57	458
1530.78	455
1528.99	468
1527.2	457.5
1525.4	446
1523.61	447
1521.82	469.5
1520.03	482
1518.23	451.5
1516.44	469.5
1514.65	470
1512.85	473.5
1511.06	476.5
1509.26	480.5
1507.46	475.5
1505.67	472
1503.87	485.5
1502.07	489.5
1500.28	480
1498.48	482
1496.68	481
1494.88	473.5
1493.08	503
1491.28	496
1489.48	497
1487.68	529
1485.88	537
1484.08	538.5
1482.27	569.5
1480.47	582
1478.67	611.5
1476.86	632
1475.06	653.5
1473.25	697
1471.45	716
1469.64	778.5
1467.84	827
1466.03	874
1464.23	923.5
1462.42	947.5
1460.61	1006.5
1458.8	1064
1456.99	1062
1455.18	1079
1453.37	1132
1451.56	1129.5
1449.75	1143
1447.94	1235.5
1446.13	1284.5
1444.32	1304
1442.51	1316.5
1440.7	1332
1438.88	1300
1437.07	1215.5
1435.26	1109
1433.44	1033
1431.63	931
1429.81	824
1427.99	722
1426.18	709
1424.36	656
1422.54	627
1420.73	623.5
1418.91	593
1417.09	580
1415.27	557
1413.45	524
1411.63	506.5
1409.81	509.5
1407.99	497
1406.17	496.5
1404.35	473
1402.53	470.5
1400.7	479
1398.88	475
1397.06	442
1395.23	442
1393.41	445.5
1391.58	454
1389.76	450.5
1387.93	424
1386.11	444.5
1384.28	437
1382.45	445.5
1380.62	445.5
1378.8	439.5
1376.97	465
1375.14	467.5
1373.31	480
1371.48	470
1369.65	486
1367.82	470
1365.99	458.5
1364.16	481
1362.32	458
1360.49	453.5
1358.66	447.5
1356.82	452.5
1354.99	453
1353.16	456
1351.32	453
1349.48	457
1347.65	442.5
1345.81	462
1343.98	463.5
1342.14	472
1340.3	471.5
1338.46	469
1336.62	454
1334.79	477
1332.95	500.5
1331.11	518.5
1329.27	521.5
1327.42	549
1325.58	557.5
1323.74	577
1321.9	618.5
1320.06	625.5
1318.21	664.5
1316.37	710.5
1314.53	718
1312.68	777.5
1310.84	807
1308.99	849
1307.15	914
1305.3	949.5
1303.45	1008
1301.61	1031.5
1299.76	1044.5
1297.91	1038.5
1296.06	957
1294.21	893.5
1292.36	814
1290.51	754
1288.66	717
1286.81	695
1284.96	660.5
1283.11	646
1281.26	656.5
1279.4	651
1277.55	654.5
1275.7	666.5
1273.84	678
1271.99	672
1270.13	659.5
1268.28	683.5
1266.42	648.5
1264.56	694
1262.71	650
1260.85	647
1258.99	630.5
1257.13	618
1255.27	604
1253.41	590.5
1251.56	566
1249.7	537.5
1247.83	523
1245.97	523.5
1244.11	497
1242.25	482.5
1240.39	475.5
1238.52	455.5
1236.66	453
1234.8	442
1232.93	439
1231.07	425
1229.2	436.5
1227.34	440
1225.47	438.5
1223.6	419.5
1221.74	406
1219.87	408.5
1218	403
1216.13	390.5
1214.26	392
1212.39	390.5
1210.53	407.5
1208.65	402.5
1206.78	403.5
1204.91	393.5
1203.04	397
1201.17	403.5
1199.3	388
1197.42	390.5
1195.55	386
1193.68	373.5
1191.8	372.5
1189.93	388.5
1188.05	398
1186.17	395
1184.3	386.5
1182.42	415.5
1180.54	405
1178.67	387.5
1176.79	385
1174.91	389
1173.03	400.5
1171.15	403
1169.27	376.5
1167.39	396.5
1165.51	390
1163.63	392.5
1161.75	394
1159.86	387.5
1157.98	386
1156.1	391.5
1154.21	386.5
1152.33	384
1150.44	399
1148.56	417
1146.67	411.5
1144.79	406.5
1142.9	412.5
1141.01	430
1139.12	426.5
1137.24	464.5
1135.35	498
1133.46	535.5
1131.57	602.5
1129.68	618.5
1127.79	590
1125.9	567.5
1124.01	581
1122.12	566
1120.22	546
1118.33	536
1116.44	535.5
1114.54	539
1112.65	526.5
1110.75	508
1108.86	517.5
1106.96	551
1105.07	556
1103.17	576.5
1101.27	604
1099.38	632.5
1097.48	638.5
1095.58	645.5
1093.68	684
1091.78	700
1089.88	709.5
1087.98	725
1086.08	718
1084.18	733
1082.28	737.5
1080.38	726.5
1078.47	758.5
1076.57	711
1074.67	731.5
1072.76	693.5
1070.86	735
1068.95	753
1067.05	784
1065.14	814.5
1063.24	806
1061.33	767
1059.42	717
1057.51	668.5
1055.6	619.5
1053.7	594
1051.79	571
1049.88	551
1047.97	538
1046.06	543
1044.14	512.5
1042.23	530
1040.32	531
1038.41	511
1036.5	535
1034.58	537.5
1032.67	522
1030.75	537.5
1028.84	532.5
1026.92	505
1025.01	510
1023.09	523.5
1021.17	524.5
1019.26	531
1017.34	517.5
1015.42	498.5
1013.5	489
1011.58	516.5
1009.66	478.5
1007.74	489
1005.82	479
1003.9	499.5
1001.98	478.5
1000.06	475
998.134	475.5
996.212	489
994.288	467
992.364	485
990.44	503
988.515	532
986.589	528
984.663	536.5
982.737	545.5
980.81	584.5
978.883	574
976.955	601
975.027	613
973.098	615
971.169	631.5
969.239	645
967.308	618
965.378	592.5
963.447	608
961.516	632.5
959.583	591
957.65	623.5
955.718	610.5
953.784	590
951.85	609.5
949.916	626.5
947.981	628
946.045	625.5
944.109	659.5
942.173	642
940.236	646.5
938.298	641.5
936.36	626
934.422	616.5
932.484	613.5
930.544	606.5
928.604	573
926.664	564
924.724	592.5
922.782	579.5
920.84	575
918.898	578.5
916.955	564
915.012	577
913.068	574.5
911.124	589.5
909.18	607
907.235	577
905.289	586.5
903.343	597
901.397	607.5
899.45	618
897.502	628
895.554	651
893.605	687
891.657	724.5
889.707	712
887.758	690
885.807	676
883.856	682.5
881.905	662.5
879.953	662
878.001	680
876.048	703
874.094	710
872.14	695.5
870.186	706
868.232	695.5
866.276	691.5
864.321	667
862.365	710
860.408	648
858.451	659
856.493	637.5
854.535	645.5
852.576	657.5
850.617	654.5
848.658	662
846.698	655
844.737	651
842.776	638
840.814	618
838.852	619.5
836.89	590
834.927	601.5
832.963	571.5
830.999	552
829.035	554.5
827.07	559
825.105	556.5
823.139	520
821.172	518
819.206	488
817.238	498.5
815.27	493
813.301	477
811.333	464.5
809.363	464.5
807.394	461.5
805.424	457
803.453	443.5
801.482	425
799.509	416.5
797.538	427
795.565	412.5
793.592	401
791.618	415.5
789.643	386.5
787.669	405
785.693	378
783.718	394
781.742	397
779.765	403.5
777.788	387.5
775.811	404.5
773.832	380.5
771.853	396.5
769.875	401.5
767.895	400
765.915	394
763.934	386.5
761.953	389
759.972	402.5
757.99	394
756.007	382
754.024	391.5
752.041	381.5
750.056	377
748.072	398
746.087	395.5
744.102	390
742.116	395.5
740.13	412
738.143	402.5
736.155	398
734.167	415
732.179	395.5
730.19	409
728.2	421.5
726.21	399.5
724.22	412.5
722.229	416
720.237	413
718.246	405
716.253	390
714.26	393
712.267	386
710.273	383
708.279	374
706.284	374.5
704.289	371
702.293	370.5
700.296	377.5
698.3	366.5
696.303	387.5
694.305	369.5
692.307	358.5
690.307	373
688.308	379.5
686.309	365
684.308	379.5
682.308	368
680.306	370
678.304	385.5
676.302	376
674.3	369.5
672.296	381.5
670.293	378
668.289	373
666.284	385.5
664.278	380
662.273	382
660.266	384
658.26	386
656.252	378
654.244	384
652.237	388
650.227	386.5
648.218	393
646.209	384
644.198	395
642.188	408.5
640.177	426
638.165	404
636.153	407.5
634.14	404
632.128	418
630.113	417.5
628.099	407.5
626.085	431
624.07	427.5
622.054	428
620.038	426
618.021	439
616.004	446
613.986	439.5
611.968	445
609.949	440.5
607.93	463.5
605.911	445.5
603.891	471
601.87	458
599.848	465
597.827	443
595.805	447.5
593.782	437.5
591.759	443
589.735	444.5
587.711	443.5
585.687	417
583.661	428.5
581.636	450.5
579.609	432
577.583	426.5
575.555	432
573.527	433.5
571.5	424.5
569.471	419
567.441	424
565.412	430.5
563.382	441.5
561.351	435.5
559.32	439
557.289	446
555.257	448.5
553.223	469
551.19	471.5
549.157	478.5
547.122	487
545.088	511
543.053	524
541.017	540
538.981	555.5
536.943	646.5
534.907	733
532.869	839.5
530.831	1098
528.792	1502.5
526.752	2249.5
524.713	3252
522.673	4313.5
520.632	4489.5
518.591	3814.5
516.549	2820
514.507	1965
512.464	1385
510.42	1030
508.377	818
506.332	707
504.288	646.5
502.242	619.5
500.196	595
498.15	579
496.104	561.5
494.056	567.5
492.008	563
489.96	532
487.911	533
485.862	527.5
483.812	551
481.761	527.5
479.71	530
477.659	518.5
475.607	527.5
473.555	518
471.502	526.5
469.448	513
467.395	510.5
465.34	505
463.285	514
461.23	531
459.174	521
457.118	513
455.061	540
453.003	537.5
450.945	539.5
448.887	543.5
446.828	555
444.768	569.5
442.708	551
440.647	573.5
438.587	545
436.525	576
434.463	565
432.4	573
430.337	575
428.274	557
426.21	571
424.145	565.5
422.079	576.5
420.014	571.5
417.948	582
415.882	554
413.814	581
411.746	593
409.679	596
407.609	594
405.54	599
403.47	586.5
401.401	600
399.329	602.5
397.258	585.5
395.187	613
393.114	586.5
391.041	590
388.968	591.5
386.895	588.5
384.82	623.5
382.745	610.5
380.67	608
378.594	616
376.517	617.5
374.44	627
372.363	612.5
370.286	617
368.207	628
366.128	624
364.049	638.5
361.969	643
359.888	636.5
357.807	633.5
355.725	632.5
353.643	647
351.561	643
349.477	657.5
347.394	654.5
345.31	669.5
343.226	675
341.141	664.5
339.055	659
336.968	685.5
334.882	669
332.795	697.5
330.707	681.5
328.618	704
326.53	691
324.44	725.5
322.351	727.5
320.26	736
318.17	723
316.078	753
313.987	755
311.895	800
309.802	800.5
307.708	839
305.614	851.5
303.52	856
301.425	864.5
299.329	851.5
297.233	857.5
295.137	849
293.039	814.5
290.942	822
288.844	814.5
286.745	812.5
284.647	828
282.546	819
280.446	839.5
278.346	845.5
276.245	844
274.143	841
272.041	851.5
269.939	861
267.835	864
265.731	871.5
263.627	865.5
261.522	902
259.417	885
257.311	877
255.204	891
253.098	903.5
250.99	914
248.882	919
246.774	945.5
244.664	940
242.555	933.5
240.445	951.5
238.334	958
236.223	960.5
234.112	988.5
232	993
229.888	990
227.775	1020
225.661	1014.5
223.546	1010.5
221.431	1040
219.316	1042.5
217.201	1067
215.084	1049.5
212.967	1041.5
210.85	1056.5
208.732	1042
206.614	1039.5
204.495	1069.5
202.375	1028.5
200.256	1060.5
198.135	1030
196.014	1057
193.893	1046
191.771	1055
189.648	1058
187.525	1029
185.401	1041.5
183.277	1048
181.152	1049.5
179.027	1058.5
176.901	1065.5
174.775	1094
172.648	1071
170.521	1087
168.393	1072
166.265	1105.5
164.136	1135
162.007	1146
159.876	1146
157.746	1171
155.615	1185
153.483	1251.5
151.351	1256
149.219	1289.5
147.086	1323
144.952	1354
142.818	1386
140.684	1396
138.548	1434.5
136.413	1449.5
134.276	1519.5
132.139	1560
130.002	1582
127.864	1637
125.725	1676.5
123.587	1717
121.447	1801
119.307	1814.5
117.166	1892
115.026	1949
112.885	2013.5
110.743	2081.5
108.6	2142.5
106.456	2188.5
104.313	2225
102.169	2220.5
100.023	2175.5
97.8789	2040.5
95.7328	1849
93.5869	1660
91.4392	1401.5
89.2919	1160.5
87.1447	924
84.9959	739.5
