3528.51	186
3527.23	197.5
3525.95	197.5
3524.67	213.5
3523.39	218
3522.1	220.5
3520.82	230.5
3519.54	224
3518.26	225.5
3516.97	224.5
3515.69	224
3514.4	219.5
3513.12	226.5
3511.84	225.5
3510.55	222
3509.26	240.5
3507.98	232.5
3506.69	232
3505.41	238.5
3504.12	239
3502.83	244.5
3501.54	256
3500.26	244
3498.97	251
3497.68	246
3496.39	250
3495.1	255
3493.81	262.5
3492.52	264.5
3491.23	282
3489.94	281
3488.65	281
3487.36	287.5
3486.07	274
3484.78	295
3483.49	289.5
3482.19	300.5
3480.9	285
3479.61	314
3478.31	305
3477.02	314
3475.73	339
3474.43	333.5
3473.14	335
3471.84	324
3470.54	321.5
3469.25	328
3467.95	325
3466.66	316
3465.36	332.5
3464.06	340
3462.76	348.5
3461.46	345.5
3460.17	341.5
3458.87	351
3457.57	346.5
3456.27	381
3454.97	340.5
3453.67	354
3452.37	349.5
3451.07	355
3449.77	369
3448.47	366
3447.16	374
3445.86	385.5
3444.56	391.5
3443.26	391.5
3441.95	408.5
3440.65	404
3439.35	403.5
3438.04	401
3436.74	426
3435.43	413
3434.13	456.5
3432.82	450.5
3431.52	463.5
3430.21	477
3428.9	478
3427.6	496.5
3426.29	489
3424.98	486
3423.67	486.5
3422.36	494.5
3421.06	506.5
3419.75	530
3418.44	532
3417.13	548.5
3415.82	561
3414.51	569.5
3413.2	553.5
3411.88	564.5
3410.57	558.5
3409.26	571.5
3407.95	582.5
3406.64	568.5
3405.32	573
3404.01	587
3402.7	600.5
3401.38	606
3400.07	585.5
3398.75	621
3397.44	609.5
3396.12	622
3394.81	626
3393.49	635.5
3392.18	626
3390.86	641.5
3389.54	646.5
3388.23	662
3386.91	663.5
3385.59	657
3384.27	678
3382.95	661
3381.63	682.5
3380.31	680.5
3378.99	691.5
3377.67	687
3376.35	680.5
3375.03	726.5
3373.71	724.5
3372.39	719
3371.07	726.5
3369.75	743
3368.42	736.5
3367.1	760.5
3365.78	748
3364.45	747.5
3363.13	763
3361.81	775
3360.48	770.5
3359.16	782
3357.83	780.5
3356.51	810.5
3355.18	792
3353.85	786.5
3352.53	793
3351.2	809
3349.87	815
3348.54	810
3347.22	813
3345.89	813.5
3344.56	821.5
3343.23	810
3341.9	831
3340.57	840.5
3339.24	840.5
3337.91	834
3336.58	828.5
3335.25	830
3333.92	841.5
3332.58	835
3331.25	836
3329.92	865
3328.59	847.5
3327.25	860.5
3325.92	856
3324.58	873
3323.25	872.5
3321.92	879.5
3320.58	860.5
3319.25	875.5
3317.91	888
3316.57	887
3315.24	889.5
3313.9	916.5
3312.56	897.5
3311.23	927
3309.89	926
3308.55	915.5
3307.21	911
3305.87	925
3304.53	921.5
3303.19	922
3301.85	953.5
3300.51	950
3299.17	941
3297.83	965.5
3296.49	961.5
3295.15	961
3293.81	987.5
3292.46	965
3291.12	954.5
3289.78	967.5
3288.43	951
3287.09	972
3285.75	958
3284.4	994.5
3283.06	981.5
3281.71	977
3280.37	994
3279.02	1007.5
3277.67	1004
3276.33	1010.5
3274.98	1006.5
3273.63	1001
3272.28	1016.5
3270.94	1040.5
3269.59	1037.5
3268.24	1046.5
3266.89	1047.5
3265.54	1059
3264.19	1082
3262.84	1102
3261.49	1139.5
3260.14	1123.5
3258.79	1140.5
3257.44	1155.5
3256.08	1183
3254.73	1195.5
3253.38	1220
3252.03	1250.5
3250.67	1269
3249.32	1350
3247.96	1322.5
3246.61	1378
3245.26	1395
3243.9	1431.5
3242.54	1470.5
3241.19	1502
3239.83	1575.5
3238.48	1596.5
3237.12	1608.5
3235.76	1679.5
3234.41	1748.5
3233.05	1769
3231.69	1811
3230.33	1878.5
3228.97	1874.5
3227.61	1955.5
3226.25	1975
3224.89	2033.5
3223.53	1997.5
3222.17	2065
3220.81	2101.5
3219.45	2122.5
3218.09	2163
3216.72	2180.5
3215.36	2194.5
3214	2225
3212.63	2242.5
3211.27	2255.5
3209.91	2262
3208.54	2298.5
3207.18	2317.5
3205.81	2346
3204.45	2320.5
3203.08	2373
3201.71	2340
3200.35	2380
3198.98	2392
3197.61	2395.5
3196.25	2409
3194.88	2414.5
3193.51	2439
3192.14	2444.5
3190.77	2477.5
3189.4	2472
3188.03	2485
3186.66	2506.5
3185.29	2502
3183.92	2514.5
3182.55	2525.5
3181.18	2538
3179.81	2560.5
3178.44	2582.5
3177.06	2594
3175.69	2580
3174.32	2595
3172.94	2647
3171.57	2672.5
3170.2	2654
3168.82	2717
3167.45	2731
3166.07	2735
3164.69	2735
3163.32	2784.5
3161.94	2807.5
3160.56	2830
3159.19	2790
3157.81	2872.5
3156.43	2880
3155.05	2892.5
3153.67	2904
3152.3	2960
3150.92	3016
3149.54	2986.5
3148.16	3016.5
3146.78	3038
3145.4	3056.5
3144.01	3060
3142.63	3065
3141.25	3071.5
3139.87	3151
3138.49	3121
3137.1	3180.5
3135.72	3149
3134.34	3215.5
3132.95	3250
3131.57	3221
3130.18	3294.5
3128.8	3295
3127.41	3335
3126.03	3313.5
3124.64	3380.5
3123.25	3357.5
3121.87	3416
3120.48	3397
3119.09	3468.5
3117.7	3408
3116.32	3483
3114.93	3486.5
3113.54	3507.5
3112.15	3533.5
3110.76	3503.5
3109.37	3527.5
3107.98	3560.5
3106.59	3586.5
3105.2	3594.5
3103.8	3614
3102.41	3608.5
3101.02	3636.5
3099.63	3679.5
3098.23	3652
3096.84	3670.5
3095.45	3686.5
3094.05	3711.5
3092.66	3745.5
3091.26	3734.5
3089.87	3708.5
3088.47	3742
3087.08	3793
3085.68	3740
3084.28	3844
3082.89	3864.5
3081.49	3840.5
3080.09	3795
3078.69	3796.5
3077.3	3859.5
3075.9	3830
3074.5	3858
3073.1	3860.5
3071.7	3832
3070.3	3915
3068.9	3889
3067.5	3858
3066.09	3898
3064.69	3914.5
3063.29	3930.5
3061.89	3919.5
3060.48	3939
3059.08	3917
3057.68	3954
3056.27	3975.5
3054.87	4002
3053.46	3973.5
3052.06	3987
3050.65	3977
3049.25	4033
3047.84	4045
3046.44	4026.5
3045.03	4038
3043.62	4148
3042.21	4115.5
3040.81	4120
3039.4	4165
3037.99	4172
3036.58	4202
3035.17	4181.5
3033.76	4174.5
3032.35	4185
3030.94	4209.5
3029.53	4213.5
3028.12	4220.5
3026.71	4278.5
3025.29	4211
3023.88	4248.5
3022.47	4233
3021.06	4273.5
3019.64	4266.5
3018.23	4245.5
3016.82	4256
3015.4	4305.5
3013.99	4292
3012.57	4303
3011.15	4308
3009.74	4320
3008.32	4334.5
3006.91	4353.5
3005.49	4374
3004.07	4380
3002.65	4391.5
3001.24	4389
2999.82	4411
2998.4	4427
2996.98	4414.5
2995.56	4473
2994.14	4513.5
2992.72	4521.5
2991.3	4586
2989.88	4558.5
2988.46	4588.5
2987.03	4588.5
2985.61	4627.5
2984.19	4620.5
2982.77	4658
2981.34	4707
2979.92	4710.5
2978.49	4722
2977.07	4777.5
2975.65	4798.5
2974.22	4809.5
2972.79	4817
2971.37	4873
2969.94	4897.5
2968.52	4911
2967.09	4885
2965.66	4955
2964.23	4942
2962.81	4969
2961.38	5031
2959.95	4994
2958.52	5028.5
2957.09	5030
2955.66	5076
2954.23	5063
2952.8	5074.5
2951.37	5093.5
2949.94	5080.5
2948.5	5127
2947.07	5138.5
2945.64	5141.5
2944.21	5216.5
2942.77	5218.5
2941.34	5262.5
2939.91	5274.5
2938.47	5296
2937.04	5312.5
2935.6	5358.5
2934.17	5318
2932.73	5372.5
2931.29	5361
2929.86	5373
2928.42	5457.5
2926.98	5428.5
2925.55	5463
2924.11	5436
2922.67	5473.5
2921.23	5454.5
2919.79	5483
2918.35	5486.5
2916.91	5476.5
2915.47	5559
2914.03	5565
2912.59	5544.5
2911.15	5591.5
2909.71	5575.5
2908.26	5603.5
2906.82	5625
2905.38	5581.5
2903.94	5650.5
2902.49	5649.5
2901.05	5655
2899.6	5699
2898.16	5681
2896.71	5723
2895.27	5645
2893.82	5723.5
2892.38	5716
2890.93	5724.5
2889.48	5772
2888.03	5764
2886.59	5745.5
2885.14	5754.5
2883.69	5805
2882.24	5814.5
2880.79	5817.5
2879.34	5864.5
2877.89	5828.5
2876.44	5802.5
2874.99	5852.5
2873.54	5870.5
2872.09	5836
2870.64	5810.5
2869.18	5846.5
2867.73	5836.5
2866.28	5894
2864.83	5857
2863.37	5875
2861.92	5862
2860.46	5873
2859.01	5868
2857.55	5897
2856.1	5876.5
2854.64	5935.5
2853.19	5936.5
2851.73	5925
2850.27	5865.5
2848.81	5884
2847.36	5879.5
2845.9	5798
2844.44	5860
2842.98	5807
2841.52	5805.5
2840.06	5710
2838.6	5689.5
2837.14	5676.5
2835.68	5636
2834.22	5664.5
2832.76	5593.5
2831.3	5593.5
2829.83	5540
2828.37	5577
2826.91	5571
2825.44	5539.5
2823.98	5525
2822.52	5528
2821.05	5518.5
2819.59	5432
2818.12	5491
2816.66	5417
2815.19	5454
2813.72	5420.5
2812.26	5403.5
2810.79	5437.5
2809.32	5428.5
2807.85	5367
2806.38	5404
2804.92	5374
2803.45	5384
2801.98	5356.5
2800.51	5301.5
2799.04	5324.5
2797.57	5308.5
2796.1	5271.5
2794.62	5313
2793.15	5258.5
2791.68	5238
2790.21	5288.5
2788.73	5307
2787.26	5281
2785.79	5307
2784.31	5270.5
2782.84	5267.5
2781.36	5313.5
2779.89	5252.5
2778.41	5329
2776.94	5338.5
2775.46	5321
2773.99	5356.5
2772.51	5367
2771.03	5335.5
2769.55	5295.5
2768.07	5320
2766.6	5306.5
2765.12	5345.5
2763.64	5325.5
2762.16	5348.5
2760.68	5350
2759.2	5342.5
2757.72	5289
2756.24	5283.5
2754.75	5261.5
2753.27	5263
2751.79	5315.5
2750.31	5315.5
2748.82	5310
2747.34	5309.5
2745.86	5332
2744.37	5324.5
2742.89	5327
2741.4	5264.5
2739.92	5332
2738.43	5296
2736.94	5300.5
2735.46	5350
2733.97	5305.5
2732.48	5291
2731	5327.5
2729.51	5297
2728.02	5309
2726.53	5313
2725.04	5287.5
2723.55	5355.5
2722.06	5351.5
2720.57	5324
2719.08	5248.5
2717.59	5279.5
2716.1	5307.5
2714.61	5252.5
2713.11	5279
2711.62	5321
2710.13	5276
2708.64	5241.5
2707.14	5262.5
2705.65	5284.5
2704.15	5250
2702.66	5222
2701.16	5255
2699.67	5227
2698.17	5170
2696.67	5237
2695.18	5236.5
2693.68	5201
2692.18	5205
2690.69	5187.5
2689.19	5194.5
2687.69	5148.5
2686.19	5156.5
2684.69	5135
2683.19	5173.5
2681.69	5130.5
2680.19	5127.5
2678.69	5117.5
2677.19	5103.5
2675.68	5149
2674.18	5094.5
2672.68	5102
2671.18	5105.5
2669.67	5061.5
2668.17	5094
2666.66	5037
2665.16	5032
2663.66	5039
2662.15	5015.5
2660.64	5012
2659.14	5004
2657.63	4977
2656.13	5016
2654.62	5000
2653.11	5001.5
2651.6	4957
2650.09	4959.5
2648.58	5001
2647.08	4983
2645.57	4911
2644.06	4955
2642.55	4911.5
2641.04	4909
2639.52	4907.5
2638.01	4872.5
2636.5	4878.5
2634.99	4872.5
2633.48	4855.5
2631.96	4864
2630.45	4885.5
2628.94	4830
2627.42	4822
2625.91	4799
2624.39	4805.5
2622.88	4793
2621.36	4854
2619.85	4770
2618.33	4812.5
2616.81	4784
2615.3	4763.5
2613.78	4747
2612.26	4743
2610.74	4767.5
2609.22	4710.5
2607.7	4740.5
2606.18	4713.5
2604.66	4726
2603.14	4646
2601.62	4652
2600.1	4617
2598.58	4610.5
2597.06	4549.5
2595.54	4579.5
2594.01	4534.5
2592.49	4516.5
2590.97	4544.5
2589.44	4580
2587.92	4510.5
2586.39	4579.5
2584.87	4523
2583.34	4538.5
2581.82	4565.5
2580.29	4572.5
2578.76	4535.5
2577.24	4498
2575.71	4497.5
2574.18	4476.5
2572.65	4480
2571.13	4481.5
2569.6	4462
2568.07	4471
2566.54	4484
2565.01	4503.5
2563.48	4458
2561.95	4449.5
2560.42	4486
2558.88	4440
2557.35	4416
2555.82	4384
2554.29	4390
2552.75	4400
2551.22	4393.5
2549.69	4426.5
2548.15	4354.5
2546.62	4320
2545.08	4333.5
2543.55	4375.5
2542.01	4337.5
2540.47	4286.5
2538.94	4286.5
2537.4	4250.5
2535.86	4277
2534.33	4262.5
2532.79	4233
2531.25	4225
2529.71	4189.5
2528.17	4214.5
2526.63	4177
2525.09	4166.5
2523.55	4168
2522.01	4156
2520.47	4158
2518.92	4158
2517.38	4147.5
2515.84	4160
2514.3	4160.5
2512.75	4110.5
2511.21	4081.5
2509.67	4077.5
2508.12	4055
2506.58	4067
2505.03	4037.5
2503.49	4034.5
2501.94	4026
2500.39	4030
2498.85	4028
2497.3	4018
2495.75	4027.5
2494.2	3988.5
2492.65	3966
2491.11	3952
2489.56	3911.5
2488.01	3909.5
2486.46	3841
2484.91	3929
2483.36	3886
2481.8	3835
2480.25	3880
2478.7	3882
2477.15	3835
2475.6	3807
2474.04	3797.5
2472.49	3763.5
2470.93	3745
2469.38	3721.5
2467.83	3719.5
2466.27	3691
2464.71	3682.5
2463.16	3688.5
2461.6	3724
2460.05	3671.5
2458.49	3660.5
2456.93	3622
2455.37	3630
2453.81	3597
2452.26	3619.5
2450.7	3624
2449.14	3561
2447.58	3547
2446.02	3508.5
2444.46	3542
2442.9	3532
2441.33	3511
2439.77	3469
2438.21	3484
2436.65	3489
2435.08	3484.5
2433.52	3492
2431.96	3451.5
2430.39	3444
2428.83	3408
2427.26	3414
2425.7	3469.5
2424.13	3414.5
2422.56	3393
2421	3395.5
2419.43	3384.5
2417.86	3343.5
2416.3	3354.5
2414.73	3315.5
2413.16	3360.5
2411.59	3372.5
2410.02	3317.5
2408.45	3341.5
2406.88	3355
2405.31	3341.5
2403.74	3352.5
2402.17	3340.5
2400.6	3320
2399.02	3300.5
2397.45	3280
2395.88	3235.5
2394.3	3242.5
2392.73	3218
2391.16	3247
2389.58	3213
2388.01	3245.5
2386.43	3236.5
2384.86	3230
2383.28	3201.5
2381.7	3212
2380.13	3213.5
2378.55	3221.5
2376.97	3221
2375.39	3210.5
2373.81	3191
2372.23	3191
2370.65	3200.5
2369.07	3180
2367.49	3177.5
2365.91	3098
2364.33	3136.5
2362.75	3123
2361.17	3107
2359.59	3134
2358.01	3123.5
2356.42	3110
2354.84	3122.5
2353.25	3098
2351.67	3109
2350.09	3111.5
2348.5	3076.5
2346.92	3061
2345.33	3066.5
2343.74	3048.5
2342.16	3052
2340.57	3081
2338.98	3061.5
2337.39	3047.5
2335.81	3011
2334.22	3048.5
2332.63	2994.5
2331.04	3020
2329.45	3017.5
2327.86	2972
2326.27	3031
2324.68	3000.5
2323.09	2944.5
2321.49	2987.5
2319.9	2930
2318.31	2928.5
2316.72	2916.5
2315.12	2930
2313.53	2923.5
2311.93	2893.5
2310.34	2871.5
2308.74	2854.5
2307.15	2850.5
2305.55	2838.5
2303.96	2842
2302.36	2810
2300.76	2796.5
2299.17	2825
2297.57	2798
2295.97	2780
2294.37	2780.5
2292.77	2775.5
2291.17	2752.5
2289.57	2691.5
2287.97	2714
2286.37	2669.5
2284.77	2732.5
2283.17	2679
2281.57	2713
2279.96	2690
2278.36	2682
2276.76	2680
2275.15	2669
2273.55	2657.5
2271.95	2628.5
2270.34	2669.5
2268.74	2648.5
2267.13	2627.5
2265.52	2632.5
2263.92	2621
2262.31	2591
2260.7	2609
2259.1	2616
2257.49	2565
2255.88	2559
2254.27	2560.5
2252.66	2556.5
2251.05	2557
2249.44	2583.5
2247.83	2547.5
2246.22	2564.5
2244.61	2556.5
2243	2553.5
2241.39	2553
2239.77	2547
2238.16	2538.5
2236.55	2500.5
2234.93	2535
2233.32	2496.5
2231.7	2465
2230.09	2485
2228.47	2452.5
2226.86	2432
2225.24	2453
2223.63	2465.5
2222.01	2429
2220.39	2448.5
2218.77	2422
2217.16	2403
2215.54	2411
2213.92	2386
2212.3	2386.5
2210.68	2333
2209.06	2317.5
2207.44	2320.5
2205.82	2322
2204.19	2352
2202.57	2338
2200.95	2285.5
2199.33	2301
2197.7	2271
2196.08	2295
2194.46	2290
2192.83	2271
2191.21	2263
2189.58	2307
2187.96	2257.5
2186.33	2250
2184.7	2248.5
2183.08	2221.5
2181.45	2228.5
2179.82	2208
2178.19	2197.5
2176.57	2203
2174.94	2203.5
2173.31	2174.5
2171.68	2208
2170.05	2141
2168.42	2149
2166.79	2156
2165.16	2146
2163.52	2148
2161.89	2102
2160.26	2131.5
2158.63	2070.5
2156.99	2127
2155.36	2100.5
2153.73	2085.5
2152.09	2117.5
2150.46	2097
2148.82	2112.5
2147.18	2059
2145.55	2038
2143.91	2050
2142.27	2017.5
2140.64	2023
2139	2020.5
2137.36	1998.5
2135.72	1993.5
2134.08	2013
2132.44	1995
2130.8	1979
2129.16	1953.5
2127.52	1993.5
2125.88	1926.5
2124.24	1966.5
2122.6	1939.5
2120.95	1902
2119.31	1905
2117.67	1873
2116.02	1879.5
2114.38	1905.5
2112.74	1880.5
2111.09	1863
2109.45	1857.5
2107.8	1848
2106.15	1834.5
2104.51	1835
2102.86	1821
2101.21	1795
2099.56	1826
2097.92	1787.5
2096.27	1794
2094.62	1796
2092.97	1783
2091.32	1796.5
2089.67	1780.5
2088.02	1790
2086.37	1771
2084.72	1796
2083.06	1772
2081.41	1748.5
2079.76	1764.5
2078.1	1775.5
2076.45	1768
2074.8	1752
2073.14	1748.5
2071.49	1761
2069.83	1755
2068.18	1734.5
2066.52	1726.5
2064.86	1732.5
2063.21	1714.5
2061.55	1724.5
2059.89	1719.5
2058.23	1702.5
2056.57	1677
2054.92	1719
2053.26	1710.5
2051.6	1678.5
2049.94	1689.5
2048.27	1685
2046.61	1696.5
2044.95	1664.5
2043.29	1634.5
2041.63	1688.5
2039.97	1631
2038.3	1657.5
2036.64	1619.5
2034.97	1606
2033.31	1633.5
2031.64	1590
2029.98	1600.5
2028.31	1569.5
2026.65	1568.5
2024.98	1577.5
2023.31	1554
2021.65	1533
2019.98	1566.5
2018.31	1559
2016.64	1561.5
2014.97	1521.5
2013.3	1542.5
2011.63	1513
2009.96	1507
2008.29	1501.5
2006.62	1498
2004.95	1497.5
2003.28	1469
2001.6	1489
1999.93	1497
1998.26	1496
1996.58	1471.5
1994.91	1477
1993.24	1471.5
1991.56	1459.5
1989.89	1453
1988.21	1499
1986.53	1435.5
1984.86	1459
1983.18	1451.5
1981.5	1405.5
1979.82	1430
1978.15	1421.5
1976.47	1422
1974.79	1408
1973.11	1397.5
1971.43	1422.5
1969.75	1387.5
1968.07	1415.5
1966.38	1390
1964.7	1351.5
1963.02	1383
1961.34	1362.5
1959.66	1376.5
1957.97	1345.5
1956.29	1346
1954.6	1346.5
1952.92	1317
1951.23	1323
1949.55	1326
1947.86	1294.5
1946.18	1309.5
1944.49	1320
1942.8	1274
1941.11	1305
1939.43	1299.5
1937.74	1290
1936.05	1285
1934.36	1267.5
1932.67	1267.5
1930.98	1239
1929.29	1257.5
1927.6	1274.5
1925.91	1250.5
1924.21	1236.5
1922.52	1228
1920.83	1217
1919.14	1223.5
1917.44	1223
1915.75	1225
1914.05	1201
1912.36	1223
1910.66	1230.5
1908.97	1206
1907.27	1194.5
1905.58	1198.5
1903.88	1218
1902.18	1183
1900.48	1186.5
1898.79	1168
1897.09	1150
1895.39	1153.5
1893.69	1145.5
1891.99	1156.5
1890.29	1160.5
1888.59	1134.5
1886.89	1124.5
1885.18	1140.5
1883.48	1123
1881.78	1101.5
1880.08	1122.5
1878.37	1100.5
1876.67	1085.5
1874.96	1086
1873.26	1071
1871.55	1067
1869.85	1058.5
1868.14	1072.5
1866.44	1063
1864.73	1072
1863.02	1077
1861.32	1090.5
1859.61	1036
1857.9	1009
1856.19	1020
1854.48	1041
1852.77	1026.5
1851.06	1040
1849.35	1034
1847.64	1027.5
1845.93	1035.5
1844.21	1027
1842.5	1016.5
1840.79	1045.5
1839.08	1000
1837.36	1025
1835.65	991.5
1833.93	978.5
1832.22	999.5
1830.5	975
1828.79	969.5
1827.07	969
1825.36	976.5
1823.64	956
1821.92	975.5
1820.2	956
1818.48	932
1816.77	933
1815.05	936.5
1813.33	943
1811.61	932.5
1809.89	933
1808.16	931
1806.44	931.5
1804.72	934.5
1803	928.5
1801.28	922
1799.55	910.5
1797.83	920
1796.11	907.5
1794.38	909
1792.66	902.5
1790.93	888.5
1789.21	891
1787.48	890.5
1785.75	886.5
1784.03	878
1782.3	889.5
1780.57	869.5
1778.84	858
1777.11	889.5
1775.38	873.5
1773.66	863.5
1771.93	857
1770.19	879.5
1768.46	872
1766.73	877
1765	884.5
1763.27	863.5
1761.54	894.5
1759.8	887.5
1758.07	903.5
1756.34	921
1754.6	941.5
1752.87	936.5
1751.13	948
1749.4	964
1747.66	936
1745.92	970
1744.19	939
1742.45	936.5
1740.71	936
1738.97	913
1737.23	918.5
1735.49	889
1733.75	881
1732.01	873
1730.27	850.5
1728.53	866
1726.79	831.5
1725.05	850.5
1723.31	823.5
1721.57	827
1719.82	797
1718.08	802
1716.34	802.5
1714.59	785.5
1712.85	791.5
1711.1	775
1709.36	776.5
1707.61	781.5
1705.86	794.5
1704.12	773.5
1702.37	766.5
1700.62	758
1698.87	767
1697.12	760.5
1695.37	757.5
1693.62	751
1691.87	741.5
1690.12	751
1688.37	749.5
1686.62	741.5
1684.87	740
1683.12	753
1681.36	752
1679.61	756
1677.86	755.5
1676.1	747
1674.35	777.5
1672.59	803.5
1670.84	818.5
1669.08	841.5
1667.33	897.5
1665.57	951
1663.81	1033
1662.06	1078
1660.3	1152
1658.54	1206
1656.78	1188.5
1655.02	1194
1653.26	1114.5
1651.5	1045.5
1649.74	980.5
1647.98	925.5
1646.22	891
1644.46	845
1642.7	816
1640.93	778
1639.17	779
1637.41	726.5
1635.64	726
1633.88	705.5
1632.11	706
1630.35	694
1628.58	679.5
1626.81	677.5
1625.05	689
1623.28	664
1621.51	680.5
1619.75	679
1617.98	648.5
1616.21	658
1614.44	652
1612.67	634
1610.9	647
1609.13	643.5
1607.36	643
1605.58	659
1603.81	658.5
1602.04	638.5
1600.27	646
1598.49	666
1596.72	638
1594.95	629.5
1593.17	615.5
1591.4	627.5
1589.62	609
1587.84	627.5
1586.07	629.5
1584.29	636.5
1582.51	632
1580.74	624.5
1578.96	623
1577.18	615
1575.4	606
1573.62	607
1571.84	602
1570.06	606.5
1568.28	602
1566.5	600
1564.72	615.5
1562.93	602.5
1561.15	612.5
1559.37	613.5
1557.58	599.5
1555.8	609
1554.02	595
1552.23	586.5
1550.45	583.5
1548.66	577
1546.87	590.5
1545.09	594.5
1543.3	608.5
1541.51	580
1539.72	607.5
1537.94	584.5
1536.15	588
1534.36	584
1532.57	567
1530.78	575
1528.99	571
1527.2	575
1525.4	578
1523.61	559
1521.82	565.5
1520.03	574.5
1518.23	570.5
1516.44	571.5
1514.65	566.5
1512.85	580
1511.06	574
1509.26	585.5
1507.46	585
1505.67	581
1503.87	599.5
1502.07	609.5
1500.28	590.5
1498.48	612
1496.68	623.5
1494.88	628
1493.08	614
1491.28	635.5
1489.48	647
1487.68	641
1485.88	679.5
1484.08	686
1482.27	713
1480.47	736.5
1478.67	775
1476.86	793
1475.06	824
1473.25	891.5
1471.45	937
1469.64	1001.5
1467.84	1089
1466.03	1117
1464.23	1178
1462.42	1255
1460.61	1317.5
1458.8	1394.5
1456.99	1442.5
1455.18	1452.5
1453.37	1483.5
1451.56	1521.5
1449.75	1560.5
1447.94	1655
1446.13	1713
1444.32	1767.5
1442.51	1829.5
1440.7	1794
1438.88	1764.5
1437.07	1660
1435.26	1523
1433.44	1384
1431.63	1232
1429.81	1092
1427.99	991.5
1426.18	924
1424.36	854.5
1422.54	822
1420.73	805
1418.91	783
1417.09	748.5
1415.27	723
1413.45	687.5
1411.63	643.5
1409.81	621
1407.99	622.5
1406.17	627.5
1404.35	594
1402.53	603
1400.7	609
1398.88	578.5
1397.06	570
1395.23	565
1393.41	554
1391.58	567.5
1389.76	556.5
1387.93	546
1386.11	557.5
1384.28	552.5
1382.45	551.5
1380.62	572.5
1378.8	561.5
1376.97	577.5
1375.14	574
1373.31	592.5
1371.48	590
1369.65	598
1367.82	595.5
1365.99	599
1364.16	582
1362.32	595.5
1360.49	578.5
1358.66	592.5
1356.82	568.5
1354.99	588.5
1353.16	574.5
1351.32	592.5
1349.48	572
1347.65	584
1345.81	586.5
1343.98	572.5
1342.14	581.5
1340.3	580
1338.46	593
1336.62	607.5
1334.79	625.5
1332.95	641.5
1331.11	671
1329.27	675.5
1327.42	719.5
1325.58	743
1323.74	781
1321.9	806.5
1320.06	862
1318.21	882
1316.37	945
1314.53	993.5
1312.68	1037
1310.84	1103.5
1308.99	1207.5
1307.15	1265.5
1305.3	1330.5
1303.45	1358
1301.61	1394
1299.76	1396.5
1297.91	1350
1296.06	1251
1294.21	1161.5
1292.36	1070
1290.51	996
1288.66	934
1286.81	922.5
1284.96	896.5
1283.11	906.5
1281.26	907.5
1279.4	901
1277.55	916.5
1275.7	905
1273.84	936.5
1271.99	968.5
1270.13	945.5
1268.28	983.5
1266.42	944
1264.56	946.5
1262.71	919
1260.85	911.5
1258.99	903.5
1257.13	862.5
1255.27	811
1253.41	798
1251.56	748.5
1249.7	731
1247.83	726.5
1245.97	679.5
1244.11	654.5
1242.25	650
1240.39	620
1238.52	619
1236.66	599.5
1234.8	578.5
1232.93	581
1231.07	588
1229.2	582.5
1227.34	567.5
1225.47	554.5
1223.6	550
1221.74	527.5
1219.87	516
1218	527.5
1216.13	518
1214.26	526.5
1212.39	544.5
1210.53	523.5
1208.65	527
1206.78	510
1204.91	525
1203.04	523.5
1201.17	523
1199.3	510
1197.42	509.5
1195.55	501.5
1193.68	493
1191.8	508
1189.93	491
1188.05	498
1186.17	507
1184.3	508.5
1182.42	509.5
1180.54	505
1178.67	514.5
1176.79	509.5
1174.91	515
1173.03	519
1171.15	501
1169.27	506
1167.39	494.5
1165.51	510.5
1163.63	516
1161.75	528
1159.86	511.5
1157.98	504
1156.1	506
1154.21	536
1152.33	506
1150.44	511
1148.56	532.5
1146.67	534.5
1144.79	556.5
1142.9	536.5
1141.01	562
1139.12	565
1137.24	591.5
1135.35	600.5
1133.46	679.5
1131.57	720
1129.68	737
1127.79	767.5
1125.9	750
1124.01	738.5
1122.12	734.5
1120.22	720
1118.33	707.5
1116.44	693
1114.54	698.5
1112.65	676.5
1110.75	669.5
1108.86	702
1106.96	719
1105.07	733.5
1103.17	764
1101.27	796
1099.38	822
1097.48	900
1095.58	901.5
1093.68	920
1091.78	945
1089.88	975.5
1087.98	989.5
1086.08	1043.5
1084.18	1029.5
1082.28	1024.5
1080.38	1043.5
1078.47	1011.5
1076.57	1032.5
1074.67	1002
1072.76	982
1070.86	997.5
1068.95	1011
1067.05	1038
1065.14	1092.5
1063.24	1067.5
1061.33	1003.5
1059.42	928.5
1057.51	870
1055.6	802
1053.7	787
1051.79	783
1049.88	752
1047.97	748
1046.06	718
1044.14	726.5
1042.23	723
1040.32	736.5
1038.41	725.5
1036.5	718.5
1034.58	739.5
1032.67	716
1030.75	705.5
1028.84	717.5
1026.92	715
1025.01	693.5
1023.09	710.5
1021.17	692.5
1019.26	704.5
1017.34	686.5
1015.42	696.5
1013.5	688
1011.58	685.5
1009.66	670.5
1007.74	666
1005.82	667.5
1003.9	642
1001.98	639
1000.06	649
998.134	641
996.212	654
994.288	647.5
992.364	673
990.44	669.5
988.515	719
986.589	703
984.663	721
982.737	741
980.81	777
978.883	789.5
976.955	815
975.027	842.5
973.098	858
971.169	841.5
969.239	846
967.308	842
965.378	819
963.447	813.5
961.516	823
959.583	813
957.65	806
955.718	827.5
953.784	793
951.85	819.5
949.916	829
947.981	843
946.045	854.5
944.109	890.5
942.173	869
940.236	871
938.298	882
936.36	866.5
934.422	864.5
932.484	818.5
930.544	817.5
928.604	800.5
926.664	780.5
924.724	809
922.782	801.5
920.84	805
918.898	795
916.955	789
915.012	791.5
913.068	786
911.124	792.5
909.18	812
907.235	815.5
905.289	815
903.343	817.5
901.397	849.5
899.45	819
897.502	861.5
895.554	893.5
893.605	908.5
891.657	955.5
889.707	973
887.758	919.5
885.807	952
883.856	928
881.905	933
879.953	931
878.001	973
876.048	982
874.094	980.5
872.14	995.5
870.186	995
868.232	955
866.276	960
864.321	963.5
862.365	957
860.408	944.5
858.451	945
856.493	928
854.535	936
852.576	955.5
850.617	935
848.658	949.5
846.698	921.5
844.737	929
842.776	902
840.814	889.5
838.852	877.5
836.89	868
834.927	837.5
832.963	835.5
830.999	799
829.035	794
827.07	745
825.105	735.5
823.139	729.5
821.172	703.5
819.206	682
817.238	692.5
815.27	665.5
813.301	651.5
811.333	655.5
809.363	628.5
807.394	632.5
805.424	617
803.453	588.5
801.482	584.5
799.509	568
797.538	555
795.565	557
793.592	541.5
791.618	543
789.643	526.5
787.669	546.5
785.693	533
783.718	553
781.742	553.5
779.765	541.5
777.788	542.5
775.811	527.5
773.832	524
771.853	524
769.875	524.5
767.895	533
765.915	547.5
763.934	543.5
761.953	535.5
759.972	524
757.99	533
756.007	531.5
754.024	525.5
752.041	517.5
750.056	526
748.072	533.5
746.087	539.5
744.102	543.5
742.116	542.5
740.13	551.5
738.143	562
736.155	546
734.167	566
732.179	551.5
730.19	559.5
728.2	564.5
726.21	555
724.22	576.5
722.229	576
720.237	561.5
718.246	575
716.253	550
714.26	569.5
712.267	534.5
710.273	534
708.279	515
706.284	519
704.289	501.5
702.293	509
700.296	513.5
698.3	514
696.303	497.5
694.305	516.5
692.307	484.5
690.307	486.5
688.308	492
686.309	497
684.308	495.5
682.308	482
680.306	496
678.304	487.5
676.302	508
674.3	512
672.296	507
670.293	525.5
668.289	511.5
666.284	497.5
664.278	504.5
662.273	518.5
660.266	512
658.26	517.5
656.252	511.5
654.244	525
652.237	514.5
650.227	514
648.218	527.5
646.209	528.5
644.198	530
642.188	528.5
640.177	545
638.165	525
636.153	527.5
634.14	541.5
632.128	548
630.113	549
628.099	574.5
626.085	567
624.07	570
622.054	575.5
620.038	593.5
618.021	580
616.004	577
613.986	585.5
611.968	578
609.949	594.5
607.93	600
605.911	594
603.891	617
601.87	613
599.848	619
597.827	597
595.805	604.5
593.782	600
591.759	598.5
589.735	600.5
587.711	577
585.687	602.5
583.661	610
581.636	583.5
579.609	584
577.583	568
575.555	580.5
573.527	580.5
571.5	571.5
569.471	575
567.441	577.5
565.412	576
563.382	576
561.351	583
559.32	576
557.289	599
555.257	603
553.223	625.5
551.19	613.5
549.157	638.5
547.122	648.5
545.088	664.5
543.053	690.5
541.017	720.5
538.981	752
536.943	827.5
534.907	929.5
532.869	1104
530.831	1394.5
528.792	1884
526.752	2728.5
524.713	3890.5
522.673	4943
520.632	4967
518.591	4151
516.549	3108.5
514.507	2195.5
512.464	1588
510.42	1207.5
508.377	1022
506.332	905.5
504.288	822
502.242	798
500.196	770
498.15	752
496.104	735
494.056	725.5
492.008	730.5
489.96	740.5
487.911	713
485.862	719
483.812	729
481.761	714
479.71	718
477.659	709
475.607	710.5
473.555	702.5
471.502	697.5
469.448	702
467.395	695
465.34	712
463.285	716
461.23	713
459.174	726.5
457.118	715.5
455.061	709
453.003	717.5
450.945	730
448.887	721.5
446.828	729
444.768	757
442.708	746.5
440.647	749.5
438.587	739
436.525	767
434.463	760
432.4	744
430.337	780.5
428.274	758
426.21	785.5
424.145	763
422.079	785.5
420.014	789
417.948	788
415.882	810
413.814	796
411.746	801
409.679	806
407.609	838.5
405.54	789
403.47	815
401.401	784
399.329	793
397.258	810.5
395.187	803.5
393.114	801
391.041	817.5
388.968	817
386.895	825.5
384.82	828
382.745	832
380.67	832.5
378.594	834
376.517	843
374.44	843
372.363	849.5
370.286	854.5
368.207	862.5
366.128	867
364.049	853.5
361.969	878.5
359.888	886.5
357.807	862
355.725	872.5
353.643	866.5
351.561	886.5
349.477	899.5
347.394	881
345.31	881
343.226	906
341.141	921.5
339.055	912.5
336.968	943.5
334.882	939
332.795	935
330.707	939.5
328.618	959
326.53	936
324.44	962.5
322.351	971
320.26	1000
318.17	1032.5
316.078	1037
313.987	1059.5
311.895	1067
309.802	1093
307.708	1099.5
305.614	1126
303.52	1151.5
301.425	1144.5
299.329	1168
297.233	1144.5
295.137	1136.5
293.039	1117.5
290.942	1131
288.844	1130
286.745	1149
284.647	1125
282.546	1147.5
280.446	1133.5
278.346	1153
276.245	1146
274.143	1176.5
272.041	1170
269.939	1207.5
267.835	1202.5
265.731	1196
263.627	1203.5
261.522	1209.5
259.417	1244
257.311	1227.5
255.204	1255.5
253.098	1276
250.99	1271
248.882	1283
246.774	1323
244.664	1302.5
242.555	1327
240.445	1341
238.334	1353.5
236.223	1395.5
234.112	1369
232	1404
229.888	1420.5
227.775	1439.5
225.661	1424.5
223.546	1454.5
221.431	1455.5
219.316	1453.5
217.201	1482
215.084	1505
212.967	1493
210.85	1492.5
208.732	1502
206.614	1500.5
204.495	1511
202.375	1494.5
200.256	1496.5
198.135	1520.5
196.014	1482.5
193.893	1482
191.771	1478.5
189.648	1497.5
187.525	1480.5
185.401	1502.5
183.277	1506.5
181.152	1500.5
179.027	1514.5
176.901	1508
174.775	1504.5
172.648	1524.5
170.521	1576
168.393	1546.5
166.265	1553
164.136	1562.5
162.007	1585.5
159.876	1582.5
157.746	1606
155.615	1661.5
153.483	1692
151.351	1762.5
149.219	1781.5
147.086	1821.5
144.952	1852
142.818	1929
140.684	1955
138.548	2048
136.413	2102
134.276	2120
132.139	2162
130.002	2238
127.864	2320.5
125.725	2417.5
123.587	2483
121.447	2545
119.307	2666
117.166	2737.5
115.026	2789
112.885	2892
110.743	3001.5
108.6	3066.5
106.456	3135
104.313	3163
102.169	3086.5
100.023	3028
97.8789	2793.5
95.7328	2595.5
93.5869	2248
91.4392	1915
89.2919	1572
87.1447	1245.5
84.9959	987.5
