3528.51	218.5
3527.23	229
3525.95	237.5
3524.67	240
3523.39	242
3522.1	244.5
3520.82	253
3519.54	241.5
3518.26	258.5
3516.97	238
3515.69	256.5
3514.4	246
3513.12	255
3511.84	268.5
3510.55	258.5
3509.26	270
3507.98	262
3506.69	252
3505.41	272
3504.12	262.5
3502.83	285
3501.54	275
3500.26	284
3498.97	282
3497.68	295
3496.39	293
3495.1	289
3493.81	302.5
3492.52	300.5
3491.23	313.5
3489.94	306
3488.65	311.5
3487.36	315.5
3486.07	338.5
3484.78	334.5
3483.49	327.5
3482.19	334.5
3480.9	341
3479.61	331
3478.31	357
3477.02	356.5
3475.73	359.5
3474.43	371
3473.14	371
3471.84	367
3470.54	381
3469.25	371.5
3467.95	381
3466.66	399.5
3465.36	382.5
3464.06	386.5
3462.76	390.5
3461.46	378
3460.17	406
3458.87	406
3457.57	398.5
3456.27	403.5
3454.97	398
3453.67	416.5
3452.37	429.5
3451.07	414
3449.77	421
3448.47	422.5
3447.16	430
3445.86	438.5
3444.56	456.5
3443.26	451.5
3441.95	461
3440.65	455
3439.35	481
3438.04	482.5
3436.74	485.5
3435.43	490
3434.13	513
3432.82	520.5
3431.52	510
3430.21	534.5
3428.9	551
3427.6	553
3426.29	565
3424.98	556
3423.67	554
3422.36	575.5
3421.06	570.5
3419.75	596
3418.44	599.5
3417.13	613.5
3415.82	621
3414.51	633
3413.2	631.5
3411.88	626
3410.57	631
3409.26	626.5
3407.95	639
3406.64	663
3405.32	671
3404.01	653
3402.7	666
3401.38	688
3400.07	698.5
3398.75	673
3397.44	705
3396.12	703.5
3394.81	714.5
3393.49	700.5
3392.18	729
3390.86	738
3389.54	740.5
3388.23	747.5
3386.91	745.5
3385.59	747.5
3384.27	741.5
3382.95	767
3381.63	785
3380.31	780.5
3378.99	787.5
3377.67	799
3376.35	801
3375.03	809
3373.71	806.5
3372.39	828
3371.07	819.5
3369.75	822.5
3368.42	836.5
3367.1	862
3365.78	867
3364.45	857
3363.13	858
3361.81	873
3360.48	875
3359.16	868.5
3357.83	873.5
3356.51	886.5
3355.18	909.5
3353.85	885.5
3352.53	897.5
3351.2	888.5
3349.87	904.5
3348.54	927
3347.22	925.5
3345.89	946.5
3344.56	921
3343.23	938.5
3341.9	937
3340.57	949
3339.24	943
3337.91	959
3336.58	952.5
3335.25	940
3333.92	945.5
3332.58	961
3331.25	976.5
3329.92	958.5
3328.59	986
3327.25	975
3325.92	996.5
3324.58	985.5
3323.25	987
3321.92	987
3320.58	1007.5
3319.25	999.5
3317.91	1021
3316.57	999
3315.24	1017
3313.9	1034.5
3312.56	1039.5
3311.23	1050
3309.89	1055
3308.55	1065.5
3307.21	1041
3305.87	1067.5
3304.53	1049.5
3303.19	1058.5
3301.85	1087
3300.51	1062
3299.17	1077
3297.83	1078.5
3296.49	1093
3295.15	1103
3293.81	1074.5
3292.46	1125.5
3291.12	1105
3289.78	1104.5
3288.43	1111
3287.09	1127.5
3285.75	1094.5
3284.4	1143
3283.06	1119.5
3281.71	1122
3280.37	1128.5
3279.02	1149.5
3277.67	1152.5
3276.33	1161
3274.98	1163
3273.63	1161
3272.28	1189.5
3270.94	1211
3269.59	1179.5
3268.24	1208.5
3266.89	1214
3265.54	1237
3264.19	1278.5
3262.84	1287
3261.49	1271.5
3260.14	1262
3258.79	1313.5
3257.44	1317
3256.08	1361.5
3254.73	1397
3253.38	1437
3252.03	1451
3250.67	1478.5
3249.32	1503
3247.96	1565.5
3246.61	1576.5
3245.26	1656.5
3243.9	1649
3242.54	1682
3241.19	1745
3239.83	1807.5
3238.48	1838
3237.12	1914
3235.76	1962
3234.41	1969.5
3233.05	2045
3231.69	2084
3230.33	2148
3228.97	2152.5
3227.61	2253.5
3226.25	2243
3224.89	2248
3223.53	2327
3222.17	2351.5
3220.81	2410.5
3219.45	2459
3218.09	2450.5
3216.72	2520.5
3215.36	2525.5
3214	2513.5
3212.63	2545
3211.27	2536.5
3209.91	2589.5
3208.54	2623
3207.18	2654
3205.81	2654
3204.45	2640.5
3203.08	2682
3201.71	2663
3200.35	2718
3198.98	2746.5
3197.61	2735
3196.25	2720.5
3194.88	2740.5
3193.51	2769
3192.14	2801
3190.77	2808
3189.4	2777.5
3188.03	2817
3186.66	2825
3185.29	2836.5
3183.92	2885
3182.55	2883
3181.18	2880.5
3179.81	2902
3178.44	2922
3177.06	2963
3175.69	2984
3174.32	2991.5
3172.94	2989
3171.57	3007.5
3170.2	3095.5
3168.82	3088.5
3167.45	3080
3166.07	3090
3164.69	3135.5
3163.32	3179.5
3161.94	3190
3160.56	3216.5
3159.19	3232
3157.81	3240.5
3156.43	3293.5
3155.05	3326.5
3153.67	3325
3152.3	3352
3150.92	3419
3149.54	3389
3148.16	3434.5
3146.78	3461.5
3145.4	3522
3144.01	3510.5
3142.63	3533.5
3141.25	3508.5
3139.87	3534
3138.49	3588
3137.1	3661
3135.72	3644
3134.34	3655.5
3132.95	3649
3131.57	3725.5
3130.18	3752
3128.8	3795
3127.41	3784
3126.03	3797.5
3124.64	3803
3123.25	3834
3121.87	3864.5
3120.48	3850
3119.09	3927.5
3117.7	3922
3116.32	3969.5
3114.93	3959.5
3113.54	3977
3112.15	3989.5
3110.76	4028
3109.37	4044.5
3107.98	4093
3106.59	4106.5
3105.2	4114.5
3103.8	4197
3102.41	4120
3101.02	4134.5
3099.63	4155
3098.23	4228
3096.84	4192.5
3095.45	4192
3094.05	4228
3092.66	4195
3091.26	4235.5
3089.87	4241.5
3088.47	4270.5
3087.08	4309
3085.68	4312.5
3084.28	4249.5
3082.89	4318.5
3081.49	4306
3080.09	4346
3078.69	4316
3077.3	4326.5
3075.9	4346
3074.5	4377.5
3073.1	4372
3071.7	4403.5
3070.3	4423
3068.9	4423.5
3067.5	4452
3066.09	4385.5
3064.69	4449
3063.29	4499
3061.89	4469
3060.48	4472.5
3059.08	4488
3057.68	4518.5
3056.27	4513
3054.87	4528
3053.46	4595.5
3052.06	4606.5
3050.65	4613
3049.25	4640.5
3047.84	4638
3046.44	4628.5
3045.03	4704
3043.62	4694
3042.21	4720
3040.81	4727.5
3039.4	4738.5
3037.99	4678.5
3036.58	4747
3035.17	4788.5
3033.76	4785
3032.35	4791
3030.94	4819.5
3029.53	4786
3028.12	4850
3026.71	4826.5
3025.29	4835
3023.88	4871
3022.47	4810
3021.06	4825.5
3019.64	4821
3018.23	4815
3016.82	4857
3015.4	4912.5
3013.99	4880.5
3012.57	4882
3011.15	4914
3009.74	4931.5
3008.32	4927.5
3006.91	4952
3005.49	4978
3004.07	4983.5
3002.65	4996
3001.24	5045
2999.82	5049
2998.4	5067
2996.98	5099
2995.56	5059.5
2994.14	5141
2992.72	5157
2991.3	5194
2989.88	5210
2988.46	5177.5
2987.03	5275.5
2985.61	5313.5
2984.19	5293
2982.77	5378.5
2981.34	5365
2979.92	5434
2978.49	5474
2977.07	5447
2975.65	5500
2974.22	5531
2972.79	5501.5
2971.37	5524
2969.94	5583.5
2968.52	5582.5
2967.09	5613
2965.66	5617
2964.23	5642
2962.81	5671.5
2961.38	5706.5
2959.95	5694.5
2958.52	5721.5
2957.09	5766
2955.66	5722.5
2954.23	5766
2952.8	5808
2951.37	5740.5
2949.94	5824
2948.5	5783
2947.07	5859.5
2945.64	5849
2944.21	5870.5
2942.77	5938.5
2941.34	5873.5
2939.91	5890
2938.47	5938
2937.04	6000
2935.6	5983
2934.17	5958.5
2932.73	6036
2931.29	6051
2929.86	6090
2928.42	6130
2926.98	6147.5
2925.55	6151
2924.11	6167.5
2922.67	6178
2921.23	6175.5
2919.79	6198
2918.35	6185.5
2916.91	6165.5
2915.47	6211
2914.03	6225
2912.59	6253.5
2911.15	6288
2909.71	6292
2908.26	6333
2906.82	6257
2905.38	6370
2903.94	6337
2902.49	6349.5
2901.05	6435
2899.6	6397.5
2898.16	6407.5
2896.71	6408
2895.27	6401
2893.82	6414
2892.38	6413
2890.93	6425.5
2889.48	6433
2888.03	6501
2886.59	6500
2885.14	6439
2883.69	6500
2882.24	6462
2880.79	6537.5
2879.34	6511
2877.89	6530.5
2876.44	6564.5
2874.99	6527
2873.54	6567.5
2872.09	6558.5
2870.64	6568
2869.18	6574.5
2867.73	6566
2866.28	6545.5
2864.83	6554.5
2863.37	6596.5
2861.92	6572.5
2860.46	6564.5
2859.01	6574.5
2857.55	6621
2856.1	6583
2854.64	6615
2853.19	6603
2851.73	6636
2850.27	6568
2848.81	6617
2847.36	6575.5
2845.9	6559
2844.44	6547.5
2842.98	6564
2841.52	6527
2840.06	6476.5
2838.6	6494
2837.14	6417.5
2835.68	6443.5
2834.22	6404
2832.76	6394
2831.3	6345.5
2829.83	6352
2828.37	6371
2826.91	6382.5
2825.44	6320
2823.98	6343.5
2822.52	6260
2821.05	6319
2819.59	6318
2818.12	6317.5
2816.66	6294.5
2815.19	6229
2813.72	6275.5
2812.26	6208
2810.79	6193.5
2809.32	6185
2807.85	6228
2806.38	6187
2804.92	6192.5
2803.45	6192
2801.98	6110.5
2800.51	6177
2799.04	6128
2797.57	6109.5
2796.1	6139.5
2794.62	6132.5
2793.15	6074
2791.68	6122.5
2790.21	6066.5
2788.73	6136.5
2787.26	6154.5
2785.79	6068
2784.31	6090
2782.84	6086.5
2781.36	6050
2779.89	6070
2778.41	6120
2776.94	6125
2775.46	6090.5
2773.99	6129
2772.51	6141.5
2771.03	6115
2769.55	6181.5
2768.07	6142.5
2766.6	6212.5
2765.12	6126
2763.64	6104
2762.16	6119
2760.68	6106.5
2759.2	6153.5
2757.72	6166
2756.24	6195
2754.75	6115
2753.27	6123
2751.79	6131.5
2750.31	6116
2748.82	6134
2747.34	6150.5
2745.86	6073.5
2744.37	6126
2742.89	6116
2741.4	6112
2739.92	6163
2738.43	6115
2736.94	6132.5
2735.46	6154
2733.97	6110.5
2732.48	6141
2731	6111
2729.51	6127.5
2728.02	6088.5
2726.53	6118
2725.04	6066
2723.55	6128.5
2722.06	6097
2720.57	6137
2719.08	6044
2717.59	6082.5
2716.1	6069
2714.61	6103
2713.11	6131
2711.62	6056.5
2710.13	6084
2708.64	6059
2707.14	6145.5
2705.65	6074.5
2704.15	6026
2702.66	6054
2701.16	6057
2699.67	5964
2698.17	6015
2696.67	6035
2695.18	6017.5
2693.68	6000
2692.18	5979.5
2690.69	6011.5
2689.19	5956
2687.69	6008.5
2686.19	5947
2684.69	5930.5
2683.19	5966
2681.69	5930.5
2680.19	5869.5
2678.69	5957.5
2677.19	5847
2675.68	5897.5
2674.18	5914.5
2672.68	5872
2671.18	5882
2669.67	5872.5
2668.17	5775.5
2666.66	5823.5
2665.16	5835
2663.66	5858
2662.15	5787.5
2660.64	5821.5
2659.14	5748
2657.63	5719
2656.13	5767.5
2654.62	5815
2653.11	5780.5
2651.6	5701
2650.09	5767
2648.58	5760
2647.08	5747
2645.57	5714
2644.06	5728
2642.55	5696.5
2641.04	5686
2639.52	5686
2638.01	5660
2636.5	5676
2634.99	5659
2633.48	5653.5
2631.96	5613.5
2630.45	5594.5
2628.94	5545.5
2627.42	5586
2625.91	5609
2624.39	5536
2622.88	5576
2621.36	5588
2619.85	5587.5
2618.33	5529.5
2616.81	5564
2615.3	5581.5
2613.78	5537.5
2612.26	5499
2610.74	5476.5
2609.22	5492.5
2607.7	5484
2606.18	5434
2604.66	5428.5
2603.14	5362
2601.62	5338
2600.1	5338
2598.58	5364
2597.06	5351.5
2595.54	5237
2594.01	5273.5
2592.49	5305.5
2590.97	5279
2589.44	5319
2587.92	5301
2586.39	5314
2584.87	5258.5
2583.34	5259.5
2581.82	5244.5
2580.29	5244
2578.76	5265
2577.24	5254.5
2575.71	5203.5
2574.18	5245.5
2572.65	5202
2571.13	5215.5
2569.6	5240
2568.07	5164.5
2566.54	5235
2565.01	5244
2563.48	5204
2561.95	5184
2560.42	5194
2558.88	5121
2557.35	5167
2555.82	5117
2554.29	5093
2552.75	5110
2551.22	5085.5
2549.69	5060.5
2548.15	5059.5
2546.62	5093.5
2545.08	5062
2543.55	5012
2542.01	5005.5
2540.47	5036.5
2538.94	4985
2537.4	5010.5
2535.86	4950
2534.33	4952.5
2532.79	4927.5
2531.25	4932
2529.71	4914.5
2528.17	4935
2526.63	4833
2525.09	4850.5
2523.55	4808.5
2522.01	4857
2520.47	4844
2518.92	4871
2517.38	4805
2515.84	4908
2514.3	4840.5
2512.75	4853.5
2511.21	4792
2509.67	4778.5
2508.12	4763
2506.58	4694.5
2505.03	4683
2503.49	4716
2501.94	4635
2500.39	4694
2498.85	4641
2497.3	4637
2495.75	4613
2494.2	4598.5
2492.65	4564.5
2491.11	4617
2489.56	4582.5
2488.01	4559
2486.46	4575
2484.91	4552.5
2483.36	4531
2481.8	4509.5
2480.25	4516
2478.7	4492
2477.15	4479.5
2475.6	4486
2474.04	4429.5
2472.49	4421
2470.93	4405.5
2469.38	4334.5
2467.83	4315.5
2466.27	4340
2464.71	4299.5
2463.16	4335
2461.6	4216.5
2460.05	4251.5
2458.49	4283
2456.93	4244
2455.37	4229
2453.81	4194.5
2452.26	4179
2450.7	4188.5
2449.14	4193.5
2447.58	4146.5
2446.02	4127
2444.46	4075.5
2442.9	4053.5
2441.33	4064.5
2439.77	4096.5
2438.21	4042
2436.65	4108
2435.08	4096
2433.52	4014
2431.96	4022
2430.39	4045
2428.83	4012.5
2427.26	3983.5
2425.7	4016
2424.13	3963
2422.56	4013.5
2421	3975
2419.43	3954.5
2417.86	3881
2416.3	3921
2414.73	3939
2413.16	3959.5
2411.59	3908
2410.02	3888.5
2408.45	3857
2406.88	3884
2405.31	3900.5
2403.74	3876.5
2402.17	3854
2400.6	3890
2399.02	3838
2397.45	3811.5
2395.88	3825
2394.3	3768
2392.73	3802
2391.16	3761.5
2389.58	3788.5
2388.01	3773.5
2386.43	3757
2384.86	3767.5
2383.28	3737.5
2381.7	3766
2380.13	3740.5
2378.55	3811.5
2376.97	3730.5
2375.39	3711
2373.81	3694
2372.23	3684.5
2370.65	3707
2369.07	3655
2367.49	3700.5
2365.91	3696.5
2364.33	3672
2362.75	3657.5
2361.17	3654.5
2359.59	3638
2358.01	3621.5
2356.42	3574
2354.84	3610.5
2353.25	3620
2351.67	3558.5
2350.09	3602
2348.5	3599
2346.92	3572.5
2345.33	3574.5
2343.74	3575
2342.16	3531.5
2340.57	3601.5
2338.98	3533.5
2337.39	3531
2335.81	3478.5
2334.22	3534
2332.63	3524.5
2331.04	3514.5
2329.45	3524.5
2327.86	3514.5
2326.27	3493.5
2324.68	3495.5
2323.09	3466
2321.49	3508
2319.9	3422
2318.31	3458
2316.72	3405
2315.12	3412
2313.53	3405
2311.93	3396.5
2310.34	3344
2308.74	3364.5
2307.15	3379
2305.55	3340.5
2303.96	3294.5
2302.36	3243.5
2300.76	3324
2299.17	3272.5
2297.57	3286.5
2295.97	3266
2294.37	3216
2292.77	3244
2291.17	3200
2289.57	3159
2287.97	3166.5
2286.37	3192
2284.77	3175.5
2283.17	3166
2281.57	3204
2279.96	3181.5
2278.36	3187
2276.76	3191.5
2275.15	3141
2273.55	3117.5
2271.95	3152
2270.34	3107.5
2268.74	3122
2267.13	3127
2265.52	3073
2263.92	3059
2262.31	3060
2260.7	3057.5
2259.1	2977
2257.49	3037.5
2255.88	3042.5
2254.27	3002
2252.66	2973.5
2251.05	3039.5
2249.44	2977
2247.83	3039.5
2246.22	3057
2244.61	2980.5
2243	2991
2241.39	2996.5
2239.77	2976.5
2238.16	2965.5
2236.55	2969.5
2234.93	2952
2233.32	2895
2231.7	2906.5
2230.09	2895
2228.47	2872.5
2226.86	2880
2225.24	2848.5
2223.63	2900.5
2222.01	2844.5
2220.39	2824.5
2218.77	2822
2217.16	2768
2215.54	2792
2213.92	2778
2212.3	2756
2210.68	2775.5
2209.06	2763.5
2207.44	2752
2205.82	2714.5
2204.19	2708
2202.57	2712
2200.95	2684
2199.33	2699
2197.7	2685
2196.08	2667
2194.46	2698.5
2192.83	2660.5
2191.21	2642
2189.58	2651.5
2187.96	2673
2186.33	2634.5
2184.7	2648.5
2183.08	2597
2181.45	2614
2179.82	2605.5
2178.19	2591
2176.57	2588.5
2174.94	2570
2173.31	2562.5
2171.68	2593.5
2170.05	2584.5
2168.42	2535.5
2166.79	2563
2165.16	2554.5
2163.52	2527
2161.89	2508.5
2160.26	2502.5
2158.63	2482.5
2156.99	2489
2155.36	2475
2153.73	2513.5
2152.09	2462.5
2150.46	2444.5
2148.82	2451
2147.18	2480.5
2145.55	2421
2143.91	2427
2142.27	2381
2140.64	2437
2139	2414.5
2137.36	2380
2135.72	2380.5
2134.08	2368
2132.44	2346
2130.8	2340
2129.16	2344.5
2127.52	2313
2125.88	2289
2124.24	2270
2122.6	2238
2120.95	2269.5
2119.31	2224.5
2117.67	2223.5
2116.02	2262.5
2114.38	2187
2112.74	2244
2111.09	2219
2109.45	2214
2107.8	2171.5
2106.15	2171
2104.51	2166.5
2102.86	2122
2101.21	2137.5
2099.56	2095
2097.92	2141
2096.27	2162.5
2094.62	2139.5
2092.97	2102.5
2091.32	2133
2089.67	2113
2088.02	2104.5
2086.37	2106
2084.72	2060.5
2083.06	2134
2081.41	2095
2079.76	2116
2078.1	2060
2076.45	2100
2074.8	2088
2073.14	2066.5
2071.49	2021.5
2069.83	2101
2068.18	2064
2066.52	2042.5
2064.86	2006.5
2063.21	2030
2061.55	2022.5
2059.89	2048.5
2058.23	2024
2056.57	2012.5
2054.92	2016.5
2053.26	2018.5
2051.6	2000
2049.94	2012
2048.27	1977
2046.61	1990.5
2044.95	1961
2043.29	1977.5
2041.63	1953.5
2039.97	1943
2038.3	1939.5
2036.64	1926.5
2034.97	1924
2033.31	1922.5
2031.64	1901
2029.98	1881
2028.31	1890
2026.65	1846
2024.98	1860
2023.31	1842.5
2021.65	1819
2019.98	1842.5
2018.31	1819.5
2016.64	1812.5
2014.97	1833
2013.3	1799
2011.63	1812.5
2009.96	1800
2008.29	1817
2006.62	1788
2004.95	1775
2003.28	1771
2001.6	1738.5
1999.93	1744
1998.26	1745.5
1996.58	1747.5
1994.91	1757.5
1993.24	1770.5
1991.56	1781
1989.89	1713.5
1988.21	1708
1986.53	1724
1984.86	1702.5
1983.18	1720.5
1981.5	1703
1979.82	1698.5
1978.15	1694
1976.47	1668.5
1974.79	1669.5
1973.11	1639
1971.43	1657
1969.75	1633
1968.07	1632
1966.38	1649
1964.7	1633
1963.02	1617.5
1961.34	1628
1959.66	1592.5
1957.97	1614
1956.29	1607.5
1954.6	1608
1952.92	1591.5
1951.23	1575.5
1949.55	1556.5
1947.86	1546
1946.18	1557
1944.49	1575
1942.8	1542.5
1941.11	1540.5
1939.43	1524.5
1937.74	1522
1936.05	1539.5
1934.36	1523.5
1932.67	1508.5
1930.98	1483.5
1929.29	1489.5
1927.6	1473.5
1925.91	1457
1924.21	1428
1922.52	1434
1920.83	1447
1919.14	1454
1917.44	1450
1915.75	1448
1914.05	1438
1912.36	1447.5
1910.66	1429.5
1908.97	1442
1907.27	1417.5
1905.58	1407.5
1903.88	1356.5
1902.18	1401
1900.48	1393.5
1898.79	1391.5
1897.09	1380.5
1895.39	1361.5
1893.69	1391.5
1891.99	1369.5
1890.29	1346
1888.59	1339
1886.89	1336.5
1885.18	1312
1883.48	1337
1881.78	1322
1880.08	1310.5
1878.37	1281.5
1876.67	1295.5
1874.96	1290
1873.26	1266
1871.55	1281.5
1869.85	1264.5
1868.14	1290.5
1866.44	1271.5
1864.73	1268.5
1863.02	1256
1861.32	1246
1859.61	1260.5
1857.9	1230.5
1856.19	1240
1854.48	1194.5
1852.77	1212
1851.06	1232
1849.35	1197.5
1847.64	1201
1845.93	1181.5
1844.21	1202.5
1842.5	1203
1840.79	1184.5
1839.08	1204.5
1837.36	1159.5
1835.65	1180.5
1833.93	1168.5
1832.22	1150
1830.5	1163
1828.79	1138
1827.07	1153
1825.36	1129
1823.64	1139.5
1821.92	1114.5
1820.2	1147
1818.48	1118.5
1816.77	1100
1815.05	1111
1813.33	1128
1811.61	1135
1809.89	1097.5
1808.16	1091
1806.44	1092.5
1804.72	1073
1803	1071
1801.28	1083
1799.55	1099
1797.83	1068.5
1796.11	1061
1794.38	1066
1792.66	1047
1790.93	1041.5
1789.21	1048
1787.48	1026
1785.75	1026
1784.03	1041.5
1782.3	1036
1780.57	1034.5
1778.84	1017
1777.11	1024.5
1775.38	1012
1773.66	1028
1771.93	1008
1770.19	1019.5
1768.46	1015.5
1766.73	1033.5
1765	1020.5
1763.27	1034
1761.54	1043.5
1759.8	1068
1758.07	1074
1756.34	1061
1754.6	1045.5
1752.87	1080
1751.13	1094
1749.4	1087
1747.66	1079.5
1745.92	1112.5
1744.19	1108
1742.45	1092
1740.71	1089
1738.97	1049.5
1737.23	1052
1735.49	1031.5
1733.75	1008.5
1732.01	1009
1730.27	974.5
1728.53	979.5
1726.79	981.5
1725.05	982.5
1723.31	948
1721.57	964
1719.82	943
1718.08	939.5
1716.34	953.5
1714.59	936
1712.85	914
1711.1	901.5
1709.36	933
1707.61	897.5
1705.86	933
1704.12	911.5
1702.37	892.5
1700.62	897.5
1698.87	906.5
1697.12	903.5
1695.37	896.5
1693.62	887
1691.87	873
1690.12	873.5
1688.37	872.5
1686.62	889
1684.87	870.5
1683.12	877
1681.36	880.5
1679.61	870.5
1677.86	868.5
1676.1	890.5
1674.35	888
1672.59	920
1670.84	915
1669.08	954
1667.33	1005
1665.57	1064
1663.81	1096.5
1662.06	1148
1660.3	1195
1658.54	1215
1656.78	1236.5
1655.02	1215
1653.26	1170
1651.5	1114.5
1649.74	1070
1647.98	985.5
1646.22	976.5
1644.46	929.5
1642.7	930.5
1640.93	852.5
1639.17	880
1637.41	833
1635.64	832
1633.88	812
1632.11	800
1630.35	776.5
1628.58	800.5
1626.81	812
1625.05	790
1623.28	781.5
1621.51	768
1619.75	785.5
1617.98	769
1616.21	786
1614.44	765.5
1612.67	761
1610.9	743
1609.13	757.5
1607.36	761.5
1605.58	759
1603.81	766.5
1602.04	738.5
1600.27	757
1598.49	745.5
1596.72	738
1594.95	740.5
1593.17	722.5
1591.4	715
1589.62	719.5
1587.84	732
1586.07	742
1584.29	719
1582.51	720
1580.74	728.5
1578.96	723
1577.18	732.5
1575.4	719
1573.62	719
1571.84	712.5
1570.06	695
1568.28	702
1566.5	714
1564.72	693.5
1562.93	694
1561.15	690.5
1559.37	695
1557.58	705.5
1555.8	684
1554.02	709.5
1552.23	695.5
1550.45	682.5
1548.66	688
1546.87	685.5
1545.09	692
1543.3	682
1541.51	690
1539.72	664
1537.94	695.5
1536.15	659.5
1534.36	656
1532.57	663
1530.78	653.5
1528.99	663
1527.2	660
1525.4	667.5
1523.61	662.5
1521.82	653.5
1520.03	651.5
1518.23	658
1516.44	663
1514.65	661
1512.85	668.5
1511.06	672.5
1509.26	680
1507.46	662
1505.67	676.5
1503.87	671.5
1502.07	677.5
1500.28	666
1498.48	692
1496.68	699
1494.88	702.5
1493.08	699.5
1491.28	723.5
1489.48	699
1487.68	716
1485.88	704
1484.08	736
1482.27	752
1480.47	783.5
1478.67	799
1476.86	816
1475.06	869
1473.25	872
1471.45	966.5
1469.64	1006
1467.84	1059.5
1466.03	1133.5
1464.23	1166
1462.42	1222
1460.61	1276.5
1458.8	1340
1456.99	1368
1455.18	1393.5
1453.37	1396.5
1451.56	1461.5
1449.75	1498.5
1447.94	1551.5
1446.13	1604
1444.32	1640.5
1442.51	1685.5
1440.7	1660.5
1438.88	1610.5
1437.07	1544
1435.26	1423.5
1433.44	1302
1431.63	1165
1429.81	1065.5
1427.99	984
1426.18	912.5
1424.36	856.5
1422.54	835
1420.73	835.5
1418.91	795
1417.09	734
1415.27	733
1413.45	716.5
1411.63	688.5
1409.81	679.5
1407.99	659.5
1406.17	656.5
1404.35	654
1402.53	632
1400.7	637
1398.88	625.5
1397.06	623.5
1395.23	619.5
1393.41	614
1391.58	605.5
1389.76	598.5
1387.93	605
1386.11	607.5
1384.28	609
1382.45	597.5
1380.62	582
1378.8	616
1376.97	602.5
1375.14	637.5
1373.31	631.5
1371.48	644
1369.65	624
1367.82	639
1365.99	645
1364.16	632
1362.32	610.5
1360.49	613.5
1358.66	607.5
1356.82	618.5
1354.99	598
1353.16	637
1351.32	626.5
1349.48	611.5
1347.65	620
1345.81	611.5
1343.98	645.5
1342.14	631
1340.3	610.5
1338.46	635.5
1336.62	630.5
1334.79	651.5
1332.95	666
1331.11	694
1329.27	721.5
1327.42	733.5
1325.58	756
1323.74	786
1321.9	811
1320.06	840
1318.21	870.5
1316.37	924.5
1314.53	974
1312.68	1020.5
1310.84	1086
1308.99	1120.5
1307.15	1178.5
1305.3	1231.5
1303.45	1283.5
1301.61	1287.5
1299.76	1276
1297.91	1236
1296.06	1156
1294.21	1060.5
1292.36	1007
1290.51	960
1288.66	889
1286.81	888
1284.96	892.5
1283.11	882
1281.26	876
1279.4	856.5
1277.55	849.5
1275.7	898
1273.84	911.5
1271.99	920.5
1270.13	924.5
1268.28	933.5
1266.42	917
1264.56	901.5
1262.71	881.5
1260.85	858
1258.99	852
1257.13	832
1255.27	794.5
1253.41	762.5
1251.56	770
1249.7	750.5
1247.83	697
1245.97	660.5
1244.11	693.5
1242.25	634
1240.39	639.5
1238.52	637.5
1236.66	621.5
1234.8	604
1232.93	606
1231.07	594
1229.2	580.5
1227.34	572
1225.47	572.5
1223.6	551
1221.74	574.5
1219.87	558
1218	554
1216.13	536
1214.26	559.5
1212.39	538
1210.53	529.5
1208.65	534
1206.78	528
1204.91	524.5
1203.04	532
1201.17	542
1199.3	540.5
1197.42	525
1195.55	542
1193.68	534.5
1191.8	514
1189.93	507.5
1188.05	512
1186.17	519.5
1184.3	514
1182.42	532
1180.54	524
1178.67	508.5
1176.79	521
1174.91	534
1173.03	524.5
1171.15	521.5
1169.27	511.5
1167.39	511
1165.51	510.5
1163.63	511
1161.75	518
1159.86	529.5
1157.98	512
1156.1	502
1154.21	518
1152.33	531.5
1150.44	530
1148.56	536.5
1146.67	553.5
1144.79	521
1142.9	549.5
1141.01	561
1139.12	562
1137.24	579
1135.35	608
1133.46	636
1131.57	680
1129.68	691
1127.79	702
1125.9	706.5
1124.01	702.5
1122.12	697
1120.22	706.5
1118.33	681.5
1116.44	674
1114.54	682
1112.65	667
1110.75	656
1108.86	683.5
1106.96	687.5
1105.07	721.5
1103.17	738
1101.27	761
1099.38	792.5
1097.48	831.5
1095.58	825.5
1093.68	864
1091.78	865.5
1089.88	904.5
1087.98	928
1086.08	925.5
1084.18	946
1082.28	952
1080.38	963.5
1078.47	965.5
1076.57	937
1074.67	941.5
1072.76	911
1070.86	930
1068.95	936.5
1067.05	937.5
1065.14	977.5
1063.24	942.5
1061.33	904.5
1059.42	871
1057.51	814
1055.6	773.5
1053.7	744
1051.79	724
1049.88	721
1047.97	729
1046.06	716
1044.14	716
1042.23	716
1040.32	704.5
1038.41	723.5
1036.5	682.5
1034.58	675.5
1032.67	712.5
1030.75	678
1028.84	689.5
1026.92	688.5
1025.01	682.5
1023.09	686
1021.17	679
1019.26	678.5
1017.34	657.5
1015.42	664
1013.5	669
1011.58	656
1009.66	650.5
1007.74	632.5
1005.82	633
1003.9	647
1001.98	642.5
1000.06	638
998.134	629.5
996.212	638
994.288	642.5
992.364	633.5
990.44	646.5
988.515	664.5
986.589	675.5
984.663	702
982.737	740
980.81	717.5
978.883	749.5
976.955	758
975.027	800.5
973.098	837.5
971.169	802.5
969.239	800.5
967.308	791
965.378	798
963.447	780.5
961.516	782
959.583	792
957.65	765
955.718	781
953.784	792
951.85	794
949.916	784
947.981	792
946.045	818.5
944.109	834
942.173	824.5
940.236	847
938.298	837
936.36	823
934.422	811
932.484	788.5
930.544	780
928.604	770
926.664	763.5
924.724	761
922.782	763.5
920.84	746
918.898	758
916.955	745
915.012	745.5
913.068	756.5
911.124	754
909.18	757.5
907.235	761
905.289	791
903.343	793
901.397	784.5
899.45	802.5
897.502	837.5
895.554	864
893.605	875.5
891.657	888
889.707	889
887.758	884
885.807	860.5
883.856	868.5
881.905	899.5
879.953	891
878.001	921.5
876.048	920.5
874.094	936.5
872.14	930.5
870.186	955.5
868.232	918
866.276	912.5
864.321	914.5
862.365	917.5
860.408	883.5
858.451	863.5
856.493	885.5
854.535	875
852.576	881
850.617	895.5
848.658	889
846.698	858
844.737	866
842.776	856.5
840.814	839.5
838.852	830.5
836.89	830
834.927	804.5
832.963	790.5
830.999	754
829.035	744
827.07	736
825.105	728.5
823.139	693
821.172	681
819.206	683.5
817.238	651.5
815.27	658
813.301	646.5
811.333	638.5
809.363	617.5
807.394	616
805.424	618
803.453	577
801.482	581.5
799.509	564.5
797.538	562
795.565	561
793.592	557.5
791.618	543
789.643	535
787.669	534.5
785.693	519
783.718	537
781.742	559
779.765	545
777.788	540
775.811	537.5
773.832	546
771.853	561
769.875	535.5
767.895	527
765.915	521
763.934	541
761.953	547
759.972	544.5
757.99	529.5
756.007	521.5
754.024	539
752.041	527
750.056	529.5
748.072	532
746.087	538.5
744.102	539
742.116	549.5
740.13	556
738.143	544.5
736.155	556
734.167	555.5
732.179	566.5
730.19	568.5
728.2	551
726.21	562
724.22	565.5
722.229	582.5
720.237	536
718.246	557
716.253	543.5
714.26	542.5
712.267	546
710.273	523.5
708.279	535
706.284	527
704.289	509
702.293	496
700.296	514.5
698.3	522.5
696.303	498.5
694.305	515
692.307	501
690.307	519.5
688.308	519
686.309	512
684.308	517
682.308	507
680.306	508.5
678.304	519
676.302	501
674.3	524
672.296	514.5
670.293	524.5
668.289	523.5
666.284	529
664.278	530.5
662.273	535.5
660.266	535.5
658.26	522.5
656.252	520
654.244	524.5
652.237	523.5
650.227	555.5
648.218	553.5
646.209	530
644.198	536
642.188	552
640.177	550.5
638.165	559
636.153	554
634.14	546.5
632.128	556.5
630.113	548
628.099	577.5
626.085	592.5
624.07	564.5
622.054	586.5
620.038	601
618.021	582.5
616.004	604.5
613.986	595
611.968	614
609.949	613.5
607.93	600.5
605.911	605
603.891	603
601.87	591
599.848	614.5
597.827	590
595.805	601.5
593.782	603
591.759	600
589.735	595.5
587.711	601.5
585.687	600.5
583.661	605.5
581.636	597
579.609	599
577.583	584
575.555	598
573.527	603
571.5	595
569.471	596.5
567.441	594
565.412	591
563.382	601
561.351	617
559.32	599.5
557.289	602.5
555.257	622
553.223	652
551.19	638.5
549.157	665
547.122	672
545.088	685
543.053	691.5
541.017	719
538.981	783
536.943	823
534.907	920
532.869	1100.5
530.831	1338
528.792	1830.5
526.752	2608
524.713	3712
522.673	4530
520.632	4539.5
518.591	3817
516.549	2872.5
514.507	2068
512.464	1528
510.42	1203
508.377	975
506.332	879
504.288	838.5
502.242	806
500.196	746.5
498.15	766.5
496.104	771
494.056	754.5
492.008	716
489.96	724.5
487.911	739
485.862	729.5
483.812	739
481.761	712
479.71	751.5
477.659	718
475.607	728.5
473.555	717
471.502	732.5
469.448	717
467.395	705
465.34	720
463.285	710
461.23	714.5
459.174	732
457.118	724.5
455.061	716.5
453.003	718.5
450.945	728
448.887	756
446.828	751
444.768	751
442.708	745
440.647	778.5
438.587	761.5
436.525	776.5
434.463	757
432.4	777.5
430.337	759
428.274	775
426.21	783
424.145	769
422.079	783.5
420.014	779.5
417.948	799
415.882	785.5
413.814	801
411.746	802.5
409.679	804
407.609	801
405.54	808.5
403.47	804
401.401	823.5
399.329	820
397.258	810.5
395.187	827.5
393.114	823
391.041	822
388.968	821.5
386.895	833.5
384.82	843.5
382.745	849.5
380.67	843.5
378.594	854
376.517	820
374.44	867
372.363	859.5
370.286	840
368.207	867.5
366.128	882
364.049	861
361.969	894.5
359.888	874
357.807	883.5
355.725	893
353.643	898
351.561	875
349.477	891
347.394	909.5
345.31	908
343.226	928
341.141	922
339.055	946.5
336.968	920.5
334.882	915
332.795	954
330.707	948.5
328.618	957.5
326.53	993.5
324.44	969
322.351	975
320.26	986
318.17	1026
316.078	1054.5
313.987	1048
311.895	1100
309.802	1094
307.708	1132.5
305.614	1130.5
303.52	1155.5
301.425	1143
299.329	1146
297.233	1129.5
295.137	1134
293.039	1146
290.942	1154
288.844	1115
286.745	1123
284.647	1126
282.546	1132.5
280.446	1141
278.346	1147
276.245	1154.5
274.143	1165
272.041	1178
269.939	1164
267.835	1190
265.731	1192.5
263.627	1231
261.522	1234
259.417	1236.5
257.311	1251
255.204	1276.5
253.098	1269
250.99	1252
248.882	1297.5
246.774	1315
244.664	1307
242.555	1328
240.445	1334.5
238.334	1382
236.223	1382
234.112	1365.5
232	1392.5
229.888	1390.5
227.775	1406
225.661	1454.5
223.546	1447.5
221.431	1450.5
219.316	1467.5
217.201	1478
215.084	1474.5
212.967	1472.5
210.85	1469.5
208.732	1493
206.614	1489
204.495	1472.5
202.375	1501
200.256	1498
198.135	1499
196.014	1530
193.893	1517
191.771	1494
189.648	1528.5
187.525	1521.5
185.401	1526
183.277	1493.5
181.152	1516.5
179.027	1527.5
176.901	1513.5
174.775	1549
172.648	1575.5
170.521	1565.5
168.393	1562
166.265	1579
164.136	1591.5
162.007	1617.5
159.876	1674
157.746	1681
155.615	1689.5
153.483	1716.5
151.351	1747.5
149.219	1834.5
147.086	1833.5
144.952	1885
142.818	1937
140.684	1945
138.548	2021.5
136.413	2084
134.276	2097
132.139	2171
130.002	2214
127.864	2263
125.725	2392
123.587	2446.5
121.447	2525
119.307	2607.5
117.166	2653
115.026	2714
112.885	2819.5
110.743	2880.5
108.6	2960.5
106.456	3026.5
104.313	3032
102.169	2981.5
100.023	2881
97.8789	2716.5
95.7328	2423
93.5869	2172.5
91.4392	1864.5
89.2919	1517.5
87.1447	1221.5
84.9959	932
