3528.51	55
3527.23	59
3525.95	107
3524.67	80.5
3523.39	62
3522.1	76.5
3520.82	86
3519.54	78.5
3518.26	86
3516.97	94.5
3515.69	63.5
3514.4	60
3513.12	66.5
3511.84	62
3510.55	72
3509.26	81.5
3507.98	92
3506.69	59
3505.41	61
3504.12	89
3502.83	83
3501.54	82.5
3500.26	70
3498.97	80
3497.68	99
3496.39	102.5
3495.1	67
3493.81	101
3492.52	78.5
3491.23	78
3489.94	89.5
3488.65	106.5
3487.36	87
3486.07	98
3484.78	89
3483.49	105
3482.19	94
3480.9	102
3479.61	89.5
3478.31	79
3477.02	125.5
3475.73	109.5
3474.43	90
3473.14	123.5
3471.84	92.5
3470.54	118
3469.25	104
3467.95	131
3466.66	89
3465.36	100.5
3464.06	94
3462.76	137
3461.46	99
3460.17	102
3458.87	117
3457.57	115
3456.27	88
3454.97	112.5
3453.67	114.5
3452.37	112
3451.07	104
3449.77	112.5
3448.47	127
3447.16	117
3445.86	94
3444.56	126
3443.26	134
3441.95	137
3440.65	137.5
3439.35	133
3438.04	111
3436.74	138.5
3435.43	110.5
3434.13	130
3432.82	155.5
3431.52	142
3430.21	137
3428.9	146
3427.6	145.5
3426.29	154
3424.98	136.5
3423.67	162.5
3422.36	164.5
3421.06	168
3419.75	169.5
3418.44	149
3417.13	194
3415.82	184.5
3414.51	175
3413.2	152.5
3411.88	202.5
3410.57	185.5
3409.26	161.5
3407.95	195
3406.64	180.5
3405.32	208
3404.01	199
3402.7	192
3401.38	198
3400.07	218
3398.75	210.5
3397.44	179
3396.12	191.5
3394.81	201
3393.49	190.5
3392.18	195
3390.86	215
3389.54	190
3388.23	190
3386.91	210
3385.59	228
3384.27	198
3382.95	196
3381.63	233.5
3380.31	237.5
3378.99	225.5
3377.67	198
3376.35	238
3375.03	216
3373.71	243.5
3372.39	230.5
3371.07	241
3369.75	257.5
3368.42	241
3367.1	246
3365.78	235.5
3364.45	247.5
3363.13	234
3361.81	236
3360.48	235
3359.16	233.5
3357.83	225
3356.51	261.5
3355.18	237
3353.85	270
3352.53	243.5
3351.2	276
3349.87	266
3348.54	261.5
3347.22	254.5
3345.89	253.5
3344.56	206.5
3343.23	255
3341.9	245.5
3340.57	260
3339.24	274.5
3337.91	254.5
3336.58	276.5
3335.25	259.5
3333.92	268
3332.58	293.5
3331.25	257.5
3329.92	286
3328.59	272
3327.25	249.5
3325.92	257
3324.58	263
3323.25	265
3321.92	269
3320.58	250.5
3319.25	252
3317.91	272.5
3316.57	288
3315.24	283.5
3313.9	250.5
3312.56	295
3311.23	282.5
3309.89	269
3308.55	256
3307.21	288
3305.87	288
3304.53	290.5
3303.19	273
3301.85	300
3300.51	277
3299.17	291.5
3297.83	295
3296.49	305.5
3295.15	278
3293.81	301.5
3292.46	303.5
3291.12	291.5
3289.78	289
3288.43	320
3287.09	290
3285.75	306
3284.4	343
3283.06	317
3281.71	309.5
3280.37	303.5
3279.02	310
3277.67	324.5
3276.33	317
3274.98	317.5
3273.63	319.5
3272.28	315.5
3270.94	298
3269.59	306
3268.24	319
3266.89	325
3265.54	329
3264.19	303.5
3262.84	355
3261.49	364.5
3260.14	349.5
3258.79	323.5
3257.44	360
3256.08	342
3254.73	359
3253.38	380.5
3252.03	348.5
3250.67	375.5
3249.32	370
3247.96	392
3246.61	378
3245.26	403
3243.9	403
3242.54	410
3241.19	411.5
3239.83	431.5
3238.48	452.5
3237.12	413
3235.76	466.5
3234.41	473.5
3233.05	496
3231.69	515
3230.33	517
3228.97	535.5
3227.61	555.5
3226.25	584.5
3224.89	571.5
3223.53	589.5
3222.17	539.5
3220.81	573.5
3219.45	601.5
3218.09	631.5
3216.72	619.5
3215.36	637.5
3214	625
3212.63	652
3211.27	656
3209.91	664.5
3208.54	663.5
3207.18	692.5
3205.81	714
3204.45	698
3203.08	729
3201.71	706.5
3200.35	693.5
3198.98	704.5
3197.61	667.5
3196.25	744.5
3194.88	706
3193.51	744
3192.14	734
3190.77	751
3189.4	748
3188.03	761
3186.66	727
3185.29	739
3183.92	765.5
3182.55	770.5
3181.18	760.5
3179.81	742.5
3178.44	798.5
3177.06	763.5
3175.69	729.5
3174.32	798.5
3172.94	794.5
3171.57	793.5
3170.2	810.5
3168.82	788.5
3167.45	823
3166.07	830
3164.69	772.5
3163.32	831.5
3161.94	847.5
3160.56	825
3159.19	860
3157.81	825
3156.43	848
3155.05	889
3153.67	877.5
3152.3	848.5
3150.92	910.5
3149.54	874
3148.16	927
3146.78	895
3145.4	889
3144.01	908
3142.63	923
3141.25	910
3139.87	921
3138.49	942
3137.1	926.5
3135.72	971.5
3134.34	945
3132.95	980.5
3131.57	954.5
3130.18	984.5
3128.8	961.5
3127.41	962.5
3126.03	1015
3124.64	991
3123.25	984.5
3121.87	1008.5
3120.48	998.5
3119.09	1010.5
3117.7	1002.5
3116.32	963.5
3114.93	1013
3113.54	1051
3112.15	1076
3110.76	1049
3109.37	1067
3107.98	1081
3106.59	1080.5
3105.2	1075.5
3103.8	1079
3102.41	1085
3101.02	1098
3099.63	1068.5
3098.23	1099
3096.84	1093
3095.45	1130.5
3094.05	1123.5
3092.66	1148
3091.26	1118.5
3089.87	1150.5
3088.47	1125
3087.08	1169
3085.68	1144
3084.28	1154.5
3082.89	1166.5
3081.49	1147.5
3080.09	1132
3078.69	1154
3077.3	1141
3075.9	1165.5
3074.5	1171.5
3073.1	1136
3071.7	1186.5
3070.3	1166.5
3068.9	1162.5
3067.5	1198
3066.09	1203
3064.69	1138
3063.29	1172.5
3061.89	1163
3060.48	1206
3059.08	1210
3057.68	1207
3056.27	1240.5
3054.87	1245.5
3053.46	1190.5
3052.06	1234.5
3050.65	1214.5
3049.25	1221.5
3047.84	1226.5
3046.44	1224.5
3045.03	1236.5
3043.62	1245.5
3042.21	1259
3040.81	1218
3039.4	1239
3037.99	1259.5
3036.58	1235.5
3035.17	1245.5
3033.76	1264.5
3032.35	1253.5
3030.94	1284
3029.53	1250
3028.12	1287.5
3026.71	1298
3025.29	1306.5
3023.88	1318.5
3022.47	1316.5
3021.06	1279
3019.64	1327
3018.23	1267
3016.82	1291
3015.4	1333
3013.99	1293
3012.57	1333
3011.15	1278.5
3009.74	1351.5
3008.32	1334.5
3006.91	1317.5
3005.49	1316.5
3004.07	1324.5
3002.65	1360
3001.24	1329
2999.82	1364.5
2998.4	1376.5
2996.98	1396
2995.56	1380
2994.14	1386.5
2992.72	1371
2991.3	1412.5
2989.88	1398.5
2988.46	1383.5
2987.03	1375.5
2985.61	1396
2984.19	1406
2982.77	1420
2981.34	1474
2979.92	1448.5
2978.49	1436.5
2977.07	1425.5
2975.65	1467
2974.22	1490
2972.79	1504
2971.37	1476.5
2969.94	1488.5
2968.52	1507
2967.09	1541.5
2965.66	1549
2964.23	1547.5
2962.81	1544
2961.38	1599
2959.95	1569.5
2958.52	1589
2957.09	1594.5
2955.66	1591
2954.23	1596.5
2952.8	1596.5
2951.37	1613.5
2949.94	1658
2948.5	1641.5
2947.07	1632.5
2945.64	1674.5
2944.21	1649.5
2942.77	1695.5
2941.34	1705.5
2939.91	1715.5
2938.47	1715.5
2937.04	1729
2935.6	1711
2934.17	1738.5
2932.73	1745.5
2931.29	1765.5
2929.86	1802
2928.42	1783
2926.98	1803
2925.55	1861.5
2924.11	1814.5
2922.67	1850.5
2921.23	1815
2919.79	1842.5
2918.35	1863.5
2916.91	1929
2915.47	1853
2914.03	1911.5
2912.59	1891
2911.15	1922
2909.71	1904
2908.26	1906
2906.82	1910
2905.38	1871.5
2903.94	1902.5
2902.49	1967
2901.05	1911.5
2899.6	1954.5
2898.16	1931.5
2896.71	1955.5
2895.27	2019.5
2893.82	1956.5
2892.38	2018.5
2890.93	1976.5
2889.48	1981.5
2888.03	1965
2886.59	1933
2885.14	1988
2883.69	1981.5
2882.24	2022
2880.79	2014
2879.34	2001
2877.89	2040.5
2876.44	2043
2874.99	1948
2873.54	1978.5
2872.09	1976.5
2870.64	1975
2869.18	1965
2867.73	1956
2866.28	1952.5
2864.83	1964
2863.37	2006
2861.92	2005
2860.46	2021
2859.01	2032
2857.55	1999
2856.1	1976.5
2854.64	1979.5
2853.19	1996.5
2851.73	1995.5
2850.27	2039
2848.81	1992
2847.36	2007.5
2845.9	2004.5
2844.44	1941
2842.98	1957
2841.52	1923
2840.06	1858.5
2838.6	1901
2837.14	1888.5
2835.68	1838.5
2834.22	1843.5
2832.76	1829
2831.3	1798
2829.83	1773.5
2828.37	1773
2826.91	1800
2825.44	1744
2823.98	1703.5
2822.52	1716.5
2821.05	1671.5
2819.59	1719
2818.12	1694.5
2816.66	1680.5
2815.19	1646
2813.72	1631.5
2812.26	1677
2810.79	1638.5
2809.32	1644.5
2807.85	1679.5
2806.38	1636
2804.92	1610.5
2803.45	1621
2801.98	1583.5
2800.51	1648.5
2799.04	1597.5
2797.57	1628
2796.1	1606
2794.62	1614
2793.15	1619.5
2791.68	1614.5
2790.21	1598.5
2788.73	1575.5
2787.26	1580.5
2785.79	1591
2784.31	1531
2782.84	1595
2781.36	1599
2779.89	1593.5
2778.41	1578.5
2776.94	1564
2775.46	1564.5
2773.99	1599.5
2772.51	1578
2771.03	1559.5
2769.55	1600.5
2768.07	1582
2766.6	1609.5
2765.12	1621.5
2763.64	1545.5
2762.16	1626.5
2760.68	1599.5
2759.2	1599.5
2757.72	1567.5
2756.24	1563
2754.75	1544
2753.27	1570.5
2751.79	1572.5
2750.31	1631.5
2748.82	1652
2747.34	1582.5
2745.86	1607.5
2744.37	1543
2742.89	1544
2741.4	1610
2739.92	1564
2738.43	1602
2736.94	1617
2735.46	1620
2733.97	1578
2732.48	1600
2731	1621.5
2729.51	1587
2728.02	1607
2726.53	1603
2725.04	1599
2723.55	1583.5
2722.06	1535.5
2720.57	1591
2719.08	1612.5
2717.59	1601.5
2716.1	1547.5
2714.61	1584
2713.11	1632
2711.62	1567
2710.13	1573.5
2708.64	1560.5
2707.14	1559
2705.65	1522
2704.15	1603
2702.66	1560
2701.16	1536
2699.67	1557
2698.17	1573.5
2696.67	1539
2695.18	1575
2693.68	1541.5
2692.18	1540
2690.69	1525.5
2689.19	1547.5
2687.69	1554
2686.19	1550
2684.69	1513
2683.19	1504.5
2681.69	1524.5
2680.19	1531.5
2678.69	1534.5
2677.19	1531.5
2675.68	1524.5
2674.18	1516
2672.68	1545.5
2671.18	1482.5
2669.67	1487
2668.17	1502
2666.66	1444
2665.16	1522.5
2663.66	1499
2662.15	1448
2660.64	1489
2659.14	1459
2657.63	1470.5
2656.13	1507
2654.62	1524
2653.11	1498.5
2651.6	1471.5
2650.09	1474.5
2648.58	1443.5
2647.08	1483.5
2645.57	1442
2644.06	1505
2642.55	1490
2641.04	1480.5
2639.52	1512
2638.01	1461
2636.5	1467
2634.99	1450.5
2633.48	1440.5
2631.96	1474.5
2630.45	1443
2628.94	1400
2627.42	1458.5
2625.91	1428
2624.39	1411.5
2622.88	1396
2621.36	1425
2619.85	1433
2618.33	1429.5
2616.81	1418.5
2615.3	1427
2613.78	1440
2612.26	1372.5
2610.74	1450.5
2609.22	1418.5
2607.7	1404.5
2606.18	1445
2604.66	1389
2603.14	1448.5
2601.62	1396.5
2600.1	1358.5
2598.58	1404.5
2597.06	1331.5
2595.54	1361.5
2594.01	1384
2592.49	1359
2590.97	1370.5
2589.44	1360.5
2587.92	1369
2586.39	1337.5
2584.87	1357.5
2583.34	1345.5
2581.82	1382
2580.29	1387.5
2578.76	1336
2577.24	1345.5
2575.71	1354.5
2574.18	1344
2572.65	1333.5
2571.13	1335.5
2569.6	1325
2568.07	1317.5
2566.54	1347.5
2565.01	1353
2563.48	1307
2561.95	1283
2560.42	1306.5
2558.88	1351.5
2557.35	1315
2555.82	1304.5
2554.29	1262
2552.75	1285
2551.22	1291
2549.69	1285.5
2548.15	1286.5
2546.62	1294
2545.08	1291.5
2543.55	1316.5
2542.01	1279
2540.47	1276
2538.94	1288
2537.4	1271
2535.86	1217
2534.33	1294
2532.79	1227
2531.25	1248
2529.71	1238.5
2528.17	1256.5
2526.63	1282.5
2525.09	1238.5
2523.55	1228
2522.01	1245
2520.47	1253.5
2518.92	1196
2517.38	1225.5
2515.84	1233.5
2514.3	1211.5
2512.75	1209
2511.21	1225
2509.67	1175
2508.12	1189
2506.58	1221.5
2505.03	1178.5
2503.49	1190
2501.94	1163
2500.39	1150
2498.85	1112
2497.3	1177
2495.75	1136.5
2494.2	1172.5
2492.65	1160.5
2491.11	1139
2489.56	1152.5
2488.01	1126.5
2486.46	1161
2484.91	1132
2483.36	1131.5
2481.8	1119
2480.25	1131.5
2478.7	1138.5
2477.15	1163.5
2475.6	1123.5
2474.04	1094
2472.49	1115.5
2470.93	1130.5
2469.38	1051
2467.83	1095.5
2466.27	1092.5
2464.71	1096
2463.16	1074
2461.6	1066.5
2460.05	1093.5
2458.49	1074.5
2456.93	1068.5
2455.37	1065
2453.81	1063
2452.26	1080
2450.7	1054.5
2449.14	1037
2447.58	1034
2446.02	1039.5
2444.46	1076
2442.9	1083.5
2441.33	1029
2439.77	1052.5
2438.21	1047
2436.65	1052
2435.08	999
2433.52	1018
2431.96	1019
2430.39	991
2428.83	1023.5
2427.26	1011
2425.7	1034.5
2424.13	1008.5
2422.56	985
2421	951.5
2419.43	990.5
2417.86	995.5
2416.3	984.5
2414.73	980
2413.16	962
2411.59	974
2410.02	979
2408.45	958.5
2406.88	953.5
2405.31	999.5
2403.74	965.5
2402.17	997
2400.6	961.5
2399.02	975
2397.45	953
2395.88	976
2394.3	971.5
2392.73	926
2391.16	950.5
2389.58	960
2388.01	922
2386.43	957
2384.86	925
2383.28	967.5
2381.7	971
2380.13	949.5
2378.55	965.5
2376.97	939.5
2375.39	949
2373.81	942.5
2372.23	942.5
2370.65	955.5
2369.07	953
2367.49	910.5
2365.91	919
2364.33	879.5
2362.75	894
2361.17	932.5
2359.59	877.5
2358.01	909
2356.42	937.5
2354.84	894.5
2353.25	910
2351.67	893.5
2350.09	901
2348.5	841.5
2346.92	896
2345.33	853.5
2343.74	895
2342.16	874.5
2340.57	904.5
2338.98	908
2337.39	896
2335.81	844.5
2334.22	891.5
2332.63	905
2331.04	901.5
2329.45	870.5
2327.86	874.5
2326.27	872.5
2324.68	875
2323.09	875
2321.49	882
2319.9	885
2318.31	863
2316.72	861
2315.12	853.5
2313.53	839.5
2311.93	857.5
2310.34	882.5
2308.74	829.5
2307.15	818.5
2305.55	860
2303.96	837
2302.36	843.5
2300.76	831
2299.17	844.5
2297.57	837
2295.97	844
2294.37	830
2292.77	862.5
2291.17	834
2289.57	816.5
2287.97	829.5
2286.37	797.5
2284.77	818
2283.17	802
2281.57	765
2279.96	770.5
2278.36	776.5
2276.76	789.5
2275.15	784
2273.55	821
2271.95	773
2270.34	771.5
2268.74	738.5
2267.13	744
2265.52	751
2263.92	785.5
2262.31	758.5
2260.7	747
2259.1	803.5
2257.49	715.5
2255.88	726
2254.27	749.5
2252.66	788
2251.05	742.5
2249.44	761.5
2247.83	771.5
2246.22	736.5
2244.61	739.5
2243	738.5
2241.39	714.5
2239.77	717.5
2238.16	744.5
2236.55	702.5
2234.93	722.5
2233.32	718.5
2231.7	737
2230.09	724.5
2228.47	693
2226.86	751.5
2225.24	718
2223.63	719
2222.01	671
2220.39	713
2218.77	719
2217.16	688.5
2215.54	676.5
2213.92	710
2212.3	706.5
2210.68	671
2209.06	666
2207.44	657
2205.82	657
2204.19	698
2202.57	671
2200.95	684
2199.33	687
2197.7	691
2196.08	660.5
2194.46	641
2192.83	677.5
2191.21	645.5
2189.58	677.5
2187.96	648
2186.33	628.5
2184.7	665
2183.08	666
2181.45	673.5
2179.82	625.5
2178.19	627
2176.57	675
2174.94	646.5
2173.31	624
2171.68	623.5
2170.05	666
2168.42	648
2166.79	636
2165.16	655
2163.52	611
2161.89	654
2160.26	640.5
2158.63	634
2156.99	623.5
2155.36	636
2153.73	636.5
2152.09	632.5
2150.46	628
2148.82	633.5
2147.18	598
2145.55	635
2143.91	604.5
2142.27	585
2140.64	603.5
2139	598
2137.36	595
2135.72	583.5
2134.08	614.5
2132.44	622
2130.8	578.5
2129.16	609
2127.52	571
2125.88	596
2124.24	606.5
2122.6	597
2120.95	593.5
2119.31	585.5
2117.67	547.5
2116.02	603
2114.38	560
2112.74	536
2111.09	561.5
2109.45	579
2107.8	528
2106.15	533
2104.51	528.5
2102.86	559.5
2101.21	562
2099.56	529
2097.92	567
2096.27	537
2094.62	517
2092.97	568.5
2091.32	533
2089.67	557.5
2088.02	554.5
2086.37	530
2084.72	524.5
2083.06	531
2081.41	515.5
2079.76	516.5
2078.1	517.5
2076.45	542.5
2074.8	530.5
2073.14	533
2071.49	538
2069.83	526.5
2068.18	542.5
2066.52	518.5
2064.86	527
2063.21	514.5
2061.55	489
2059.89	505
2058.23	512
2056.57	511
2054.92	514
2053.26	502.5
2051.6	525
2049.94	489
2048.27	484
2046.61	505.5
2044.95	516.5
2043.29	463
2041.63	480.5
2039.97	481
2038.3	507
2036.64	471.5
2034.97	518.5
2033.31	472
2031.64	500.5
2029.98	490.5
2028.31	457.5
2026.65	466
2024.98	474.5
2023.31	478
2021.65	471.5
2019.98	462
2018.31	479
2016.64	445.5
2014.97	466
2013.3	477
2011.63	457.5
2009.96	475.5
2008.29	472.5
2006.62	487
2004.95	458.5
2003.28	501.5
2001.6	430
1999.93	444
1998.26	447.5
1996.58	483
1994.91	428
1993.24	458
1991.56	445.5
1989.89	440.5
1988.21	439
1986.53	464.5
1984.86	443.5
1983.18	429.5
1981.5	432
1979.82	437
1978.15	446
1976.47	452
1974.79	442
1973.11	448.5
1971.43	441.5
1969.75	452.5
1968.07	400.5
1966.38	420
1964.7	433
1963.02	410
1961.34	421
1959.66	433
1957.97	416
1956.29	417.5
1954.6	437.5
1952.92	431.5
1951.23	435
1949.55	450
1947.86	419
1946.18	416
1944.49	392.5
1942.8	415.5
1941.11	425.5
1939.43	403
1937.74	387
1936.05	394.5
1934.36	417.5
1932.67	374.5
1930.98	388
1929.29	418.5
1927.6	405.5
1925.91	395
1924.21	395
1922.52	406
1920.83	419.5
1919.14	411.5
1917.44	377.5
1915.75	381.5
1914.05	379.5
1912.36	378.5
1910.66	396.5
1908.97	383.5
1907.27	387.5
1905.58	377
1903.88	361
1902.18	382.5
1900.48	375.5
1898.79	376
1897.09	393.5
1895.39	388.5
1893.69	342.5
1891.99	362
1890.29	372.5
1888.59	374.5
1886.89	365.5
1885.18	360.5
1883.48	354.5
1881.78	378.5
1880.08	359
1878.37	351.5
1876.67	344
1874.96	357
1873.26	361
1871.55	367
1869.85	384.5
1868.14	341.5
1866.44	340.5
1864.73	351
1863.02	342
1861.32	355
1859.61	348
1857.9	355
1856.19	323.5
1854.48	350.5
1852.77	333
1851.06	346
1849.35	348.5
1847.64	351.5
1845.93	356
1844.21	300
1842.5	304
1840.79	347
1839.08	336.5
1837.36	333.5
1835.65	328.5
1833.93	337
1832.22	317
1830.5	333
1828.79	331.5
1827.07	335
1825.36	320
1823.64	322.5
1821.92	278
1820.2	335
1818.48	307
1816.77	317.5
1815.05	328.5
1813.33	320.5
1811.61	320
1809.89	300
1808.16	300
1806.44	295
1804.72	330
1803	318
1801.28	293.5
1799.55	313
1797.83	311
1796.11	309
1794.38	327.5
1792.66	313.5
1790.93	283.5
1789.21	308
1787.48	300.5
1785.75	304
1784.03	304
1782.3	305
1780.57	269
1778.84	323.5
1777.11	318.5
1775.38	291
1773.66	317.5
1771.93	304.5
1770.19	297.5
1768.46	317.5
1766.73	318
1765	305
1763.27	310
1761.54	335
1759.8	333
1758.07	348
1756.34	354
1754.6	352
1752.87	366
1751.13	351.5
1749.4	387
1747.66	364.5
1745.92	380
1744.19	380
1742.45	375
1740.71	399.5
1738.97	335
1737.23	366
1735.49	365.5
1733.75	351
1732.01	318.5
1730.27	347
1728.53	345
1726.79	354.5
1725.05	319.5
1723.31	293
1721.57	303.5
1719.82	270
1718.08	284
1716.34	281
1714.59	312
1712.85	301.5
1711.1	288
1709.36	315.5
1707.61	293
1705.86	284.5
1704.12	297.5
1702.37	301
1700.62	280.5
1698.87	279
1697.12	271.5
1695.37	269.5
1693.62	270
1691.87	282
1690.12	298
1688.37	282
1686.62	281.5
1684.87	283.5
1683.12	265
1681.36	244
1679.61	306
1677.86	291.5
1676.1	293
1674.35	321
1672.59	336
1670.84	329.5
1669.08	339
1667.33	368
1665.57	411.5
1663.81	432.5
1662.06	489
1660.3	522
1658.54	538
1656.78	586
1655.02	561.5
1653.26	569.5
1651.5	528.5
1649.74	455.5
1647.98	407.5
1646.22	389.5
1644.46	396
1642.7	354
1640.93	307
1639.17	319
1637.41	319
1635.64	307
1633.88	275
1632.11	280
1630.35	287.5
1628.58	283
1626.81	300
1625.05	284
1623.28	267.5
1621.51	277.5
1619.75	272
1617.98	270
1616.21	247
1614.44	281.5
1612.67	244
1610.9	270
1609.13	247
1607.36	303
1605.58	268.5
1603.81	234
1602.04	259
1600.27	256
1598.49	250.5
1596.72	258
1594.95	254
1593.17	273.5
1591.4	250
1589.62	270.5
1587.84	246
1586.07	277
1584.29	277
1582.51	249
1580.74	274.5
1578.96	276
1577.18	269.5
1575.4	252.5
1573.62	257
1571.84	270.5
1570.06	281.5
1568.28	247.5
1566.5	237
1564.72	256
1562.93	265.5
1561.15	245
1559.37	271
1557.58	273
1555.8	259
1554.02	265.5
1552.23	250
1550.45	272.5
1548.66	260.5
1546.87	255
1545.09	276
1543.3	250.5
1541.51	239
1539.72	218
1537.94	277
1536.15	239.5
1534.36	274.5
1532.57	261.5
1530.78	255
1528.99	258.5
1527.2	270
1525.4	256
1523.61	249
1521.82	264
1520.03	263
1518.23	274
1516.44	289
1514.65	269
1512.85	273
1511.06	284.5
1509.26	303.5
1507.46	263
1505.67	287.5
1503.87	296
1502.07	297.5
1500.28	293
1498.48	284.5
1496.68	305.5
1494.88	295.5
1493.08	322
1491.28	323.5
1489.48	314
1487.68	367
1485.88	360
1484.08	392
1482.27	378
1480.47	423
1478.67	429
1476.86	461.5
1475.06	514.5
1473.25	537
1471.45	611.5
1469.64	666
1467.84	696
1466.03	744
1464.23	777
1462.42	862
1460.61	895
1458.8	908
1456.99	922
1455.18	953
1453.37	990.5
1451.56	1022
1449.75	1063
1447.94	1047
1446.13	1168
1444.32	1193
1442.51	1232.5
1440.7	1186.5
1438.88	1214
1437.07	1121
1435.26	1048
1433.44	882
1431.63	799
1429.81	716.5
1427.99	625.5
1426.18	587
1424.36	564
1422.54	525
1420.73	488
1418.91	477
1417.09	451
1415.27	425
1413.45	414
1411.63	392
1409.81	359
1407.99	375
1406.17	354.5
1404.35	327
1402.53	360
1400.7	351
1398.88	327
1397.06	309
1395.23	315.5
1393.41	304
1391.58	345
1389.76	315
1387.93	322.5
1386.11	296
1384.28	356.5
1382.45	337
1380.62	354.5
1378.8	308
1376.97	333
1375.14	335
1373.31	347
1371.48	360.5
1369.65	365
1367.82	365
1365.99	332
1364.16	316
1362.32	355
1360.49	327
1358.66	352
1356.82	369
1354.99	351.5
1353.16	327.5
1351.32	334.5
1349.48	379.5
1347.65	379
1345.81	331
1343.98	352
1342.14	344
1340.3	358
1338.46	377
1336.62	347
1334.79	365.5
1332.95	382.5
1331.11	359
1329.27	411.5
1327.42	444
1325.58	456
1323.74	474
1321.9	514
1320.06	491
1318.21	575
1316.37	562
1314.53	627
1312.68	668
1310.84	763.5
1308.99	763.5
1307.15	794
1305.3	906
1303.45	929
1301.61	974
1299.76	1034
1297.91	1039
1296.06	943
1294.21	857.5
1292.36	738.5
1290.51	689.5
1288.66	640.5
1286.81	597
1284.96	541
1283.11	503
1281.26	554.5
1279.4	560
1277.55	572
1275.7	554
1273.84	556
1271.99	563
1270.13	585
1268.28	597
1266.42	608.5
1264.56	572.5
1262.71	589.5
1260.85	562
1258.99	531.5
1257.13	528
1255.27	510.5
1253.41	501
1251.56	473
1249.7	474.5
1247.83	455.5
1245.97	436
1244.11	409.5
1242.25	415
1240.39	417
1238.52	370
1236.66	359.5
1234.8	364
1232.93	344.5
1231.07	351
1229.2	367
1227.34	353.5
1225.47	338.5
1223.6	327
1221.74	316
1219.87	333
1218	324
1216.13	323.5
1214.26	303
1212.39	319.5
1210.53	309
1208.65	303.5
1206.78	324
1204.91	305
1203.04	315
1201.17	332
1199.3	310.5
1197.42	310.5
1195.55	321.5
1193.68	315
1191.8	324
1189.93	329.5
1188.05	309
1186.17	303
1184.3	342
1182.42	332
1180.54	331
1178.67	337
1176.79	312
1174.91	355
1173.03	340
1171.15	324.5
1169.27	330
1167.39	307.5
1165.51	347.5
1163.63	306
1161.75	318.5
1159.86	336
1157.98	325
1156.1	316
1154.21	320.5
1152.33	343
1150.44	334
1148.56	367.5
1146.67	352
1144.79	360.5
1142.9	353.5
1141.01	307
1139.12	389
1137.24	396
1135.35	456
1133.46	532
1131.57	582.5
1129.68	645
1127.79	607.5
1125.9	562
1124.01	496
1122.12	518.5
1120.22	527
1118.33	493
1116.44	463.5
1114.54	448.5
1112.65	473
1110.75	475
1108.86	467
1106.96	481
1105.07	486
1103.17	542
1101.27	542
1099.38	561
1097.48	603
1095.58	614.5
1093.68	609
1091.78	622
1089.88	633
1087.98	645
1086.08	714.5
1084.18	689.5
1082.28	702.5
1080.38	707.5
1078.47	692
1076.57	654
1074.67	704
1072.76	673.5
1070.86	704
1068.95	692
1067.05	765.5
1065.14	802
1063.24	857
1061.33	774
1059.42	734
1057.51	636.5
1055.6	587
1053.7	576
1051.79	537.5
1049.88	513
1047.97	502
1046.06	494
1044.14	488.5
1042.23	489
1040.32	500
1038.41	499
1036.5	499
1034.58	491.5
1032.67	461
1030.75	446
1028.84	491
1026.92	466
1025.01	495
1023.09	472
1021.17	470
1019.26	468.5
1017.34	476.5
1015.42	466
1013.5	440
1011.58	473
1009.66	433
1007.74	448
1005.82	437
1003.9	406
1001.98	431
1000.06	404
998.134	456
996.212	417
994.288	445
992.364	428.5
990.44	461.5
988.515	473
986.589	438.5
984.663	484.5
982.737	460
980.81	492.5
978.883	466.5
976.955	487
975.027	543.5
973.098	536.5
971.169	530
969.239	534
967.308	517
965.378	571
963.447	535
961.516	551.5
959.583	533
957.65	541
955.718	524
953.784	555.5
951.85	538
949.916	561
947.981	543
946.045	544
944.109	561.5
942.173	531
940.236	556
938.298	575
936.36	563.5
934.422	529
932.484	563
930.544	550
928.604	538.5
926.664	521
924.724	518
922.782	490
920.84	499
918.898	502
916.955	535
915.012	538
913.068	533
911.124	546
909.18	552
907.235	520
905.289	549
903.343	511
901.397	582.5
899.45	538
897.502	540
895.554	605.5
893.605	645.5
891.657	639
889.707	681
887.758	664
885.807	635
883.856	619
881.905	608
879.953	621
878.001	635
876.048	685.5
874.094	656.5
872.14	639
870.186	668.5
868.232	650.5
866.276	650.5
864.321	679
862.365	588
860.408	653
858.451	616
856.493	628
854.535	660
852.576	610
850.617	654
848.658	591.5
846.698	604
844.737	636
842.776	574
840.814	624
838.852	555.5
836.89	566
834.927	539
832.963	546
830.999	554
829.035	500
827.07	469
825.105	471.5
823.139	479
821.172	491.5
819.206	469
817.238	476
815.27	442
813.301	449.5
811.333	427
809.363	410
807.394	416
805.424	399
803.453	408
801.482	394
799.509	369
797.538	380.5
795.565	377
793.592	361
791.618	392.5
789.643	395
787.669	356.5
785.693	383
783.718	364
781.742	337
779.765	359.5
777.788	366
775.811	333.5
773.832	396.5
771.853	353
769.875	361.5
767.895	340
765.915	350
763.934	356.5
761.953	355
759.972	368.5
757.99	337.5
756.007	364
754.024	334
752.041	359.5
750.056	350
748.072	371.5
746.087	361
744.102	388.5
742.116	364.5
740.13	397
738.143	363
736.155	360
734.167	380
732.179	362
730.19	382
728.2	379
726.21	391
724.22	397
722.229	379
720.237	392
718.246	363
716.253	384
714.26	388
712.267	397
710.273	347
708.279	360
706.284	354
704.289	365
702.293	337.5
700.296	339.5
698.3	358.5
696.303	355
694.305	335.5
692.307	360
690.307	338.5
688.308	337
686.309	316.5
684.308	327
682.308	350
680.306	337
678.304	370
676.302	351
674.3	370.5
672.296	359
670.293	352
668.289	335
666.284	329.5
664.278	344
662.273	375
660.266	340.5
658.26	331
656.252	362.5
654.244	367
652.237	368.5
650.227	361
648.218	385.5
646.209	375
644.198	349
642.188	377.5
640.177	390
638.165	364
636.153	367
634.14	400
632.128	372
630.113	371
628.099	379.5
626.085	427
624.07	402
622.054	386
620.038	386
618.021	371
616.004	416
613.986	398.5
611.968	415.5
609.949	407.5
607.93	407
605.911	440.5
603.891	418.5
601.87	447.5
599.848	448
597.827	449
595.805	388
593.782	407
591.759	440.5
589.735	390
587.711	424
585.687	418
583.661	402.5
581.636	415
579.609	387.5
577.583	408.5
575.555	419
573.527	391.5
571.5	432
569.471	383.5
567.441	393
565.412	406.5
563.382	428
561.351	401
559.32	360
557.289	394.5
555.257	414
553.223	434
551.19	448.5
549.157	421
547.122	460.5
545.088	455
543.053	461.5
541.017	504.5
538.981	523.5
536.943	540
534.907	597
532.869	683
530.831	805
528.792	1136
526.752	1510
524.713	2280
522.673	3030
520.632	3236.5
518.591	2828.5
516.549	2228
514.507	1558
512.464	1151
510.42	812
508.377	713.5
506.332	629
504.288	598
502.242	542
500.196	556
498.15	551
496.104	523
494.056	513.5
492.008	499.5
489.96	479
487.911	517.5
485.862	475
483.812	491.5
481.761	484.5
479.71	495.5
477.659	504
475.607	506
473.555	503.5
471.502	444.5
469.448	498
467.395	478
465.34	485
463.285	465
461.23	458
459.174	530
457.118	489.5
455.061	488.5
453.003	491.5
450.945	504
448.887	481
446.828	532
444.768	498
442.708	510
440.647	523.5
438.587	504.5
436.525	522
434.463	549
432.4	562.5
430.337	504.5
428.274	553
426.21	559.5
424.145	533
422.079	538.5
420.014	499
417.948	531
415.882	547
413.814	516.5
411.746	586
409.679	549.5
407.609	553.5
405.54	557.5
403.47	557.5
401.401	574.5
399.329	534
397.258	564
395.187	512.5
393.114	531.5
391.041	536
388.968	543
386.895	539
384.82	539.5
382.745	551.5
380.67	535
378.594	541.5
376.517	548.5
374.44	599.5
372.363	578
370.286	554.5
368.207	593
366.128	566.5
364.049	579.5
361.969	565
359.888	577
357.807	612
355.725	566
353.643	584.5
351.561	592.5
349.477	586
347.394	562
345.31	556
343.226	626.5
341.141	583.5
339.055	622.5
336.968	595.5
334.882	592
332.795	617
330.707	603
328.618	630.5
326.53	611.5
324.44	623
322.351	650
320.26	634.5
318.17	656
316.078	657.5
313.987	706.5
311.895	659.5
309.802	719
307.708	740.5
305.614	752.5
303.52	746
301.425	787
299.329	728.5
297.233	722.5
295.137	700
293.039	744.5
290.942	731
288.844	736.5
286.745	724.5
284.647	734.5
282.546	713.5
280.446	729.5
278.346	735
276.245	743
274.143	752
272.041	762
269.939	761
267.835	793
265.731	790.5
263.627	779.5
261.522	788
259.417	824
257.311	783
255.204	792.5
253.098	809.5
250.99	807.5
248.882	852
246.774	836
244.664	841.5
242.555	875.5
240.445	861
238.334	865.5
236.223	849
234.112	895
232	897.5
229.888	881
227.775	893
225.661	911
223.546	941
221.431	928
219.316	923.5
217.201	968
215.084	958
212.967	947.5
210.85	967
208.732	940
206.614	957
204.495	927
202.375	958
200.256	953
198.135	992
196.014	1001
193.893	957
191.771	966
189.648	998.5
187.525	944
185.401	938
183.277	966
181.152	988
179.027	1000
176.901	940
174.775	961.5
172.648	972
170.521	1031
168.393	1032
166.265	1032
164.136	1043.5
162.007	1074.5
159.876	1092.5
157.746	1083
155.615	1110
153.483	1120
151.351	1143
149.219	1173
147.086	1267
144.952	1296
142.818	1284
140.684	1349
138.548	1411
136.413	1412
134.276	1432.5
132.139	1522
130.002	1578
127.864	1606
125.725	1620
123.587	1767
121.447	1814.5
119.307	1859.5
117.166	1937
115.026	2003.5
112.885	2076.5
110.743	2153.5
108.6	2191.5
106.456	2249.5
104.313	2302
102.169	2342
100.023	2275
97.8789	2218.5
95.7328	2060
93.5869	1825
91.4392	1585
89.2919	1308
87.1447	1082.5
84.9959	817
