3528.51	65
3527.23	66
3525.95	70.5
3524.67	104
3523.39	84
3522.1	82
3520.82	71
3519.54	94.5
3518.26	83
3516.97	99.5
3515.69	82
3514.4	76
3513.12	87
3511.84	78.5
3510.55	53
3509.26	83
3507.98	112
3506.69	80.5
3505.41	93
3504.12	84.5
3502.83	73
3501.54	114
3500.26	87
3498.97	80.5
3497.68	97
3496.39	97
3495.1	90.5
3493.81	119
3492.52	89
3491.23	95.5
3489.94	114
3488.65	92
3487.36	76.5
3486.07	96
3484.78	97.5
3483.49	106.5
3482.19	98
3480.9	120
3479.61	107
3478.31	75
3477.02	112.5
3475.73	109
3474.43	105.5
3473.14	134.5
3471.84	131.5
3470.54	120
3469.25	112.5
3467.95	125
3466.66	109.5
3465.36	109
3464.06	100
3462.76	115
3461.46	131.5
3460.17	111.5
3458.87	93
3457.57	111
3456.27	134
3454.97	123
3453.67	140
3452.37	105.5
3451.07	129
3449.77	126.5
3448.47	129
3447.16	134
3445.86	142
3444.56	126.5
3443.26	154.5
3441.95	143.5
3440.65	147
3439.35	141
3438.04	129.5
3436.74	162.5
3435.43	146
3434.13	154.5
3432.82	147
3431.52	133.5
3430.21	186
3428.9	139
3427.6	170.5
3426.29	174
3424.98	155
3423.67	170.5
3422.36	187.5
3421.06	181
3419.75	169.5
3418.44	166.5
3417.13	184
3415.82	184
3414.51	170.5
3413.2	219.5
3411.88	182.5
3410.57	205
3409.26	195
3407.95	200.5
3406.64	193.5
3405.32	199
3404.01	208.5
3402.7	187.5
3401.38	224.5
3400.07	220
3398.75	214
3397.44	206
3396.12	228
3394.81	223
3393.49	199.5
3392.18	223.5
3390.86	234
3389.54	215
3388.23	210
3386.91	208
3385.59	240
3384.27	217
3382.95	207
3381.63	233.5
3380.31	232.5
3378.99	208
3377.67	240.5
3376.35	221
3375.03	226
3373.71	236
3372.39	245.5
3371.07	235.5
3369.75	256.5
3368.42	266.5
3367.1	246
3365.78	231
3364.45	249.5
3363.13	275.5
3361.81	291
3360.48	258.5
3359.16	281.5
3357.83	246
3356.51	249
3355.18	238
3353.85	263
3352.53	283.5
3351.2	240.5
3349.87	240
3348.54	287
3347.22	262.5
3345.89	252
3344.56	254.5
3343.23	290.5
3341.9	275.5
3340.57	264
3339.24	259
3337.91	268.5
3336.58	269.5
3335.25	271
3333.92	286.5
3332.58	286
3331.25	279
3329.92	292
3328.59	303
3327.25	259.5
3325.92	294.5
3324.58	311
3323.25	274.5
3321.92	285.5
3320.58	304
3319.25	278.5
3317.91	300
3316.57	303
3315.24	241.5
3313.9	300
3312.56	295.5
3311.23	319
3309.89	303.5
3308.55	298
3307.21	307
3305.87	306
3304.53	312
3303.19	319.5
3301.85	320
3300.51	316.5
3299.17	307
3297.83	304.5
3296.49	310.5
3295.15	314
3293.81	325
3292.46	316
3291.12	323
3289.78	304
3288.43	317.5
3287.09	305
3285.75	315
3284.4	310
3283.06	335.5
3281.71	325.5
3280.37	331.5
3279.02	286.5
3277.67	346
3276.33	319.5
3274.98	340
3273.63	346.5
3272.28	326
3270.94	340
3269.59	324.5
3268.24	354.5
3266.89	356
3265.54	335
3264.19	319.5
3262.84	347.5
3261.49	367
3260.14	383
3258.79	358.5
3257.44	358
3256.08	379
3254.73	371.5
3253.38	362.5
3252.03	387
3250.67	417.5
3249.32	403
3247.96	382.5
3246.61	430
3245.26	445.5
3243.9	435.5
3242.54	449.5
3241.19	451.5
3239.83	470
3238.48	480.5
3237.12	488.5
3235.76	501.5
3234.41	489
3233.05	519.5
3231.69	540
3230.33	522.5
3228.97	544
3227.61	593
3226.25	574
3224.89	574
3223.53	579.5
3222.17	591.5
3220.81	637
3219.45	625.5
3218.09	653
3216.72	657.5
3215.36	658.5
3214	647
3212.63	703.5
3211.27	704
3209.91	715.5
3208.54	726
3207.18	704
3205.81	709.5
3204.45	741.5
3203.08	750
3201.71	718.5
3200.35	743.5
3198.98	736.5
3197.61	743
3196.25	764.5
3194.88	758
3193.51	738.5
3192.14	745.5
3190.77	723
3189.4	783
3188.03	779.5
3186.66	755.5
3185.29	766
3183.92	806
3182.55	776
3181.18	792.5
3179.81	792.5
3178.44	808.5
3177.06	822
3175.69	801
3174.32	824.5
3172.94	796
3171.57	806
3170.2	804
3168.82	827.5
3167.45	812.5
3166.07	843
3164.69	868.5
3163.32	876.5
3161.94	878
3160.56	871
3159.19	904.5
3157.81	863
3156.43	876.5
3155.05	919
3153.67	974.5
3152.3	897.5
3150.92	929.5
3149.54	927.5
3148.16	906.5
3146.78	935.5
3145.4	976.5
3144.01	945
3142.63	978
3141.25	961
3139.87	970.5
3138.49	989.5
3137.1	967.5
3135.72	983
3134.34	1014
3132.95	976
3131.57	993
3130.18	1017.5
3128.8	1028
3127.41	1013
3126.03	1027.5
3124.64	1049.5
3123.25	1068.5
3121.87	1071
3120.48	1092.5
3119.09	1081
3117.7	1067
3116.32	1070
3114.93	1061
3113.54	1066.5
3112.15	1124.5
3110.76	1137.5
3109.37	1128.5
3107.98	1144.5
3106.59	1140.5
3105.2	1103.5
3103.8	1112.5
3102.41	1163.5
3101.02	1118
3099.63	1122.5
3098.23	1190
3096.84	1158
3095.45	1139
3094.05	1189.5
3092.66	1195.5
3091.26	1158.5
3089.87	1155
3088.47	1183.5
3087.08	1200
3085.68	1210.5
3084.28	1174
3082.89	1213.5
3081.49	1210.5
3080.09	1196.5
3078.69	1219
3077.3	1237
3075.9	1184
3074.5	1218
3073.1	1220
3071.7	1223
3070.3	1210.5
3068.9	1247
3067.5	1239.5
3066.09	1248
3064.69	1242.5
3063.29	1227.5
3061.89	1240.5
3060.48	1250.5
3059.08	1248.5
3057.68	1270
3056.27	1230.5
3054.87	1241.5
3053.46	1273.5
3052.06	1301.5
3050.65	1299
3049.25	1286.5
3047.84	1263.5
3046.44	1310.5
3045.03	1261.5
3043.62	1287
3042.21	1281
3040.81	1235
3039.4	1305.5
3037.99	1321
3036.58	1288.5
3035.17	1308.5
3033.76	1298.5
3032.35	1309
3030.94	1348.5
3029.53	1322
3028.12	1337
3026.71	1338.5
3025.29	1357
3023.88	1333
3022.47	1353.5
3021.06	1356
3019.64	1393.5
3018.23	1370
3016.82	1351
3015.4	1354.5
3013.99	1332
3012.57	1336.5
3011.15	1368.5
3009.74	1395.5
3008.32	1380.5
3006.91	1370
3005.49	1400.5
3004.07	1374
3002.65	1404.5
3001.24	1470.5
2999.82	1443
2998.4	1414.5
2996.98	1422
2995.56	1426
2994.14	1453
2992.72	1472
2991.3	1476
2989.88	1443
2988.46	1500.5
2987.03	1472.5
2985.61	1457
2984.19	1505
2982.77	1524
2981.34	1542.5
2979.92	1540
2978.49	1528.5
2977.07	1557
2975.65	1524.5
2974.22	1575
2972.79	1561.5
2971.37	1602.5
2969.94	1570
2968.52	1601
2967.09	1579
2965.66	1627.5
2964.23	1651
2962.81	1640.5
2961.38	1618
2959.95	1666
2958.52	1692
2957.09	1698.5
2955.66	1693.5
2954.23	1710
2952.8	1717.5
2951.37	1738.5
2949.94	1735.5
2948.5	1745
2947.07	1724.5
2945.64	1770.5
2944.21	1780.5
2942.77	1767.5
2941.34	1857.5
2939.91	1799
2938.47	1845
2937.04	1826.5
2935.6	1842.5
2934.17	1827.5
2932.73	1834
2931.29	1912.5
2929.86	1904.5
2928.42	1923
2926.98	1931.5
2925.55	1967.5
2924.11	1914.5
2922.67	1872
2921.23	1897
2919.79	1936
2918.35	1905.5
2916.91	1936.5
2915.47	1911
2914.03	1958
2912.59	1941.5
2911.15	1963
2909.71	1962
2908.26	1984.5
2906.82	1984.5
2905.38	2036
2903.94	2026.5
2902.49	2022.5
2901.05	2019.5
2899.6	2000
2898.16	2030
2896.71	1985
2895.27	2063
2893.82	2035
2892.38	2001.5
2890.93	2058.5
2889.48	2040.5
2888.03	2055.5
2886.59	2052.5
2885.14	2055.5
2883.69	2019
2882.24	2022.5
2880.79	2067
2879.34	2068
2877.89	2002
2876.44	2062
2874.99	2045.5
2873.54	2084
2872.09	2044
2870.64	2048
2869.18	2002.5
2867.73	2074.5
2866.28	2063.5
2864.83	2039.5
2863.37	2049
2861.92	2077
2860.46	2053.5
2859.01	2089.5
2857.55	2101.5
2856.1	2113
2854.64	2123
2853.19	2064
2851.73	2086.5
2850.27	2068
2848.81	2120.5
2847.36	2069
2845.9	2024.5
2844.44	2033
2842.98	2034.5
2841.52	1998
2840.06	1924
2838.6	1947.5
2837.14	1928.5
2835.68	1906.5
2834.22	1925.5
2832.76	1869
2831.3	1887.5
2829.83	1841.5
2828.37	1824
2826.91	1786.5
2825.44	1823.5
2823.98	1795.5
2822.52	1783.5
2821.05	1794.5
2819.59	1774.5
2818.12	1785
2816.66	1727.5
2815.19	1714.5
2813.72	1748.5
2812.26	1742.5
2810.79	1720.5
2809.32	1712.5
2807.85	1703
2806.38	1688
2804.92	1696.5
2803.45	1687.5
2801.98	1673
2800.51	1697.5
2799.04	1719
2797.57	1719
2796.1	1693
2794.62	1705
2793.15	1676
2791.68	1673.5
2790.21	1712
2788.73	1683
2787.26	1737
2785.79	1679.5
2784.31	1642
2782.84	1654
2781.36	1640.5
2779.89	1685
2778.41	1673
2776.94	1684
2775.46	1691.5
2773.99	1683.5
2772.51	1676
2771.03	1694.5
2769.55	1681
2768.07	1637
2766.6	1670.5
2765.12	1644
2763.64	1680.5
2762.16	1650
2760.68	1705
2759.2	1674.5
2757.72	1673
2756.24	1641
2754.75	1678.5
2753.27	1660.5
2751.79	1679
2750.31	1659
2748.82	1659
2747.34	1657
2745.86	1649
2744.37	1702.5
2742.89	1670.5
2741.4	1653.5
2739.92	1696
2738.43	1646
2736.94	1668.5
2735.46	1665
2733.97	1642
2732.48	1701
2731	1649.5
2729.51	1700.5
2728.02	1705
2726.53	1677
2725.04	1639
2723.55	1658
2722.06	1672
2720.57	1700.5
2719.08	1664
2717.59	1641.5
2716.1	1649.5
2714.61	1666
2713.11	1672
2711.62	1633.5
2710.13	1652.5
2708.64	1639.5
2707.14	1598.5
2705.65	1649.5
2704.15	1624
2702.66	1635
2701.16	1616
2699.67	1633.5
2698.17	1622.5
2696.67	1616.5
2695.18	1588
2693.68	1609.5
2692.18	1608.5
2690.69	1617
2689.19	1603
2687.69	1622.5
2686.19	1612
2684.69	1593.5
2683.19	1586
2681.69	1600
2680.19	1582.5
2678.69	1593
2677.19	1584.5
2675.68	1586.5
2674.18	1585
2672.68	1619
2671.18	1594.5
2669.67	1599.5
2668.17	1554.5
2666.66	1556.5
2665.16	1563.5
2663.66	1567.5
2662.15	1570.5
2660.64	1554
2659.14	1569
2657.63	1561
2656.13	1523.5
2654.62	1573
2653.11	1545
2651.6	1551.5
2650.09	1531.5
2648.58	1560
2647.08	1582
2645.57	1553
2644.06	1549.5
2642.55	1520
2641.04	1576
2639.52	1539.5
2638.01	1568
2636.5	1516.5
2634.99	1519.5
2633.48	1532
2631.96	1509
2630.45	1507
2628.94	1544
2627.42	1534.5
2625.91	1493.5
2624.39	1478.5
2622.88	1514.5
2621.36	1534
2619.85	1514
2618.33	1556
2616.81	1481.5
2615.3	1521
2613.78	1496.5
2612.26	1518.5
2610.74	1486.5
2609.22	1528
2607.7	1495
2606.18	1451
2604.66	1476
2603.14	1475.5
2601.62	1481
2600.1	1478
2598.58	1474.5
2597.06	1434.5
2595.54	1450
2594.01	1434.5
2592.49	1462.5
2590.97	1458.5
2589.44	1448
2587.92	1419.5
2586.39	1417.5
2584.87	1406.5
2583.34	1453.5
2581.82	1461
2580.29	1448.5
2578.76	1414
2577.24	1432.5
2575.71	1431.5
2574.18	1446.5
2572.65	1414.5
2571.13	1398
2569.6	1369.5
2568.07	1408
2566.54	1412
2565.01	1409
2563.48	1392.5
2561.95	1412
2560.42	1394
2558.88	1363
2557.35	1346.5
2555.82	1408.5
2554.29	1361
2552.75	1374
2551.22	1326.5
2549.69	1352
2548.15	1360.5
2546.62	1334
2545.08	1326.5
2543.55	1335.5
2542.01	1416
2540.47	1355.5
2538.94	1384
2537.4	1332.5
2535.86	1342
2534.33	1308.5
2532.79	1290
2531.25	1288.5
2529.71	1324.5
2528.17	1334
2526.63	1285
2525.09	1318.5
2523.55	1244.5
2522.01	1298.5
2520.47	1272
2518.92	1303.5
2517.38	1273
2515.84	1255
2514.3	1237.5
2512.75	1250.5
2511.21	1272.5
2509.67	1266
2508.12	1266
2506.58	1213
2505.03	1245.5
2503.49	1247.5
2501.94	1242.5
2500.39	1250.5
2498.85	1257.5
2497.3	1237.5
2495.75	1201
2494.2	1248
2492.65	1219.5
2491.11	1233
2489.56	1242.5
2488.01	1227.5
2486.46	1275.5
2484.91	1250
2483.36	1220.5
2481.8	1217
2480.25	1219
2478.7	1192.5
2477.15	1191.5
2475.6	1190.5
2474.04	1177.5
2472.49	1195.5
2470.93	1186.5
2469.38	1166.5
2467.83	1179.5
2466.27	1197
2464.71	1136
2463.16	1145
2461.6	1168.5
2460.05	1126.5
2458.49	1165
2456.93	1162
2455.37	1145.5
2453.81	1127
2452.26	1151.5
2450.7	1109.5
2449.14	1138
2447.58	1121.5
2446.02	1113
2444.46	1115
2442.9	1103.5
2441.33	1056.5
2439.77	1085
2438.21	1068
2436.65	1084
2435.08	1064
2433.52	1053
2431.96	1073.5
2430.39	1082.5
2428.83	1106.5
2427.26	1063.5
2425.7	1070.5
2424.13	1024
2422.56	1082.5
2421	1076
2419.43	1076
2417.86	1071.5
2416.3	1064
2414.73	1029
2413.16	1024
2411.59	1052.5
2410.02	1065
2408.45	1039
2406.88	1037.5
2405.31	1036
2403.74	1027.5
2402.17	1028.5
2400.6	1015
2399.02	1049
2397.45	1033.5
2395.88	1021.5
2394.3	1026.5
2392.73	1020
2391.16	998
2389.58	1009.5
2388.01	1031
2386.43	1017.5
2384.86	992
2383.28	988
2381.7	976
2380.13	977
2378.55	995.5
2376.97	966.5
2375.39	992
2373.81	999
2372.23	1038
2370.65	1021
2369.07	1001.5
2367.49	1001
2365.91	985
2364.33	999.5
2362.75	968
2361.17	957.5
2359.59	962.5
2358.01	963.5
2356.42	937.5
2354.84	999
2353.25	945
2351.67	949.5
2350.09	934.5
2348.5	929
2346.92	950.5
2345.33	969
2343.74	920.5
2342.16	939.5
2340.57	969
2338.98	937.5
2337.39	957.5
2335.81	931
2334.22	949.5
2332.63	955
2331.04	952
2329.45	938
2327.86	959
2326.27	944.5
2324.68	918
2323.09	954.5
2321.49	911
2319.9	915.5
2318.31	912.5
2316.72	894
2315.12	909.5
2313.53	958
2311.93	906
2310.34	922.5
2308.74	880.5
2307.15	899
2305.55	888
2303.96	857
2302.36	872
2300.76	880
2299.17	888
2297.57	839.5
2295.97	841
2294.37	877.5
2292.77	884
2291.17	863.5
2289.57	880
2287.97	852.5
2286.37	846.5
2284.77	834.5
2283.17	819
2281.57	869
2279.96	832
2278.36	845.5
2276.76	884
2275.15	848
2273.55	833.5
2271.95	833
2270.34	809.5
2268.74	807.5
2267.13	803
2265.52	794
2263.92	823
2262.31	791.5
2260.7	819
2259.1	787.5
2257.49	799.5
2255.88	836.5
2254.27	790.5
2252.66	782.5
2251.05	773
2249.44	785.5
2247.83	796.5
2246.22	738.5
2244.61	776.5
2243	771.5
2241.39	783
2239.77	802
2238.16	783
2236.55	739
2234.93	786.5
2233.32	789
2231.7	730
2230.09	783.5
2228.47	766.5
2226.86	760.5
2225.24	735
2223.63	742.5
2222.01	736
2220.39	778.5
2218.77	760
2217.16	755
2215.54	767.5
2213.92	778
2212.3	749
2210.68	769.5
2209.06	744
2207.44	724
2205.82	711.5
2204.19	717.5
2202.57	739.5
2200.95	728
2199.33	739.5
2197.7	734
2196.08	693
2194.46	764
2192.83	706.5
2191.21	735.5
2189.58	739.5
2187.96	717
2186.33	710.5
2184.7	708.5
2183.08	691.5
2181.45	693
2179.82	682
2178.19	720
2176.57	688
2174.94	711
2173.31	644
2171.68	691
2170.05	692
2168.42	666.5
2166.79	702.5
2165.16	667.5
2163.52	706
2161.89	701.5
2160.26	665
2158.63	700.5
2156.99	680.5
2155.36	699.5
2153.73	706.5
2152.09	688.5
2150.46	664
2148.82	670
2147.18	699.5
2145.55	617.5
2143.91	657.5
2142.27	641.5
2140.64	669
2139	637
2137.36	640
2135.72	649
2134.08	633
2132.44	620.5
2130.8	633.5
2129.16	635.5
2127.52	632.5
2125.88	612
2124.24	611.5
2122.6	624.5
2120.95	660
2119.31	593.5
2117.67	629
2116.02	601
2114.38	620.5
2112.74	623.5
2111.09	578
2109.45	598.5
2107.8	636.5
2106.15	601
2104.51	603.5
2102.86	554.5
2101.21	603.5
2099.56	554
2097.92	608
2096.27	566.5
2094.62	581.5
2092.97	575.5
2091.32	576
2089.67	610.5
2088.02	555
2086.37	584
2084.72	572
2083.06	553
2081.41	582.5
2079.76	571
2078.1	557
2076.45	585.5
2074.8	555
2073.14	570
2071.49	550
2069.83	567
2068.18	571
2066.52	553
2064.86	567.5
2063.21	561.5
2061.55	555.5
2059.89	543
2058.23	561.5
2056.57	556.5
2054.92	546.5
2053.26	553
2051.6	579.5
2049.94	538
2048.27	560.5
2046.61	532
2044.95	568.5
2043.29	559
2041.63	524
2039.97	561
2038.3	552
2036.64	521
2034.97	534.5
2033.31	524
2031.64	551
2029.98	577
2028.31	518.5
2026.65	524.5
2024.98	527.5
2023.31	514.5
2021.65	534
2019.98	518
2018.31	527.5
2016.64	534.5
2014.97	523
2013.3	502.5
2011.63	511.5
2009.96	545.5
2008.29	520.5
2006.62	485.5
2004.95	512
2003.28	525.5
2001.6	517
1999.93	489
1998.26	495.5
1996.58	514
1994.91	448
1993.24	497.5
1991.56	512.5
1989.89	501.5
1988.21	510.5
1986.53	462
1984.86	502.5
1983.18	484.5
1981.5	490
1979.82	496.5
1978.15	447
1976.47	495
1974.79	503
1973.11	478.5
1971.43	467
1969.75	498
1968.07	422.5
1966.38	485
1964.7	470.5
1963.02	485
1961.34	491
1959.66	495
1957.97	471
1956.29	444
1954.6	466.5
1952.92	459.5
1951.23	465
1949.55	480.5
1947.86	475
1946.18	451
1944.49	452
1942.8	456
1941.11	458.5
1939.43	445
1937.74	461.5
1936.05	432.5
1934.36	420
1932.67	455
1930.98	461
1929.29	464
1927.6	422.5
1925.91	449.5
1924.21	452
1922.52	495.5
1920.83	446
1919.14	415
1917.44	411.5
1915.75	433.5
1914.05	437
1912.36	434
1910.66	446.5
1908.97	436
1907.27	441.5
1905.58	413
1903.88	404.5
1902.18	409
1900.48	409.5
1898.79	409
1897.09	425
1895.39	428.5
1893.69	452.5
1891.99	428
1890.29	421.5
1888.59	413.5
1886.89	422
1885.18	403
1883.48	396.5
1881.78	415
1880.08	399
1878.37	380.5
1876.67	450
1874.96	387.5
1873.26	386
1871.55	427
1869.85	401.5
1868.14	363.5
1866.44	385.5
1864.73	362.5
1863.02	404.5
1861.32	396
1859.61	420
1857.9	397
1856.19	382.5
1854.48	377
1852.77	399
1851.06	377
1849.35	384
1847.64	376.5
1845.93	391
1844.21	373
1842.5	370
1840.79	362
1839.08	367
1837.36	393.5
1835.65	375.5
1833.93	357
1832.22	375.5
1830.5	364.5
1828.79	393.5
1827.07	405
1825.36	365
1823.64	391
1821.92	380.5
1820.2	401.5
1818.48	361
1816.77	389
1815.05	370
1813.33	401.5
1811.61	351
1809.89	345.5
1808.16	392
1806.44	359
1804.72	361.5
1803	351
1801.28	340
1799.55	368.5
1797.83	341.5
1796.11	354
1794.38	365.5
1792.66	345
1790.93	344.5
1789.21	360
1787.48	359.5
1785.75	366.5
1784.03	355.5
1782.3	360.5
1780.57	346
1778.84	351.5
1777.11	381.5
1775.38	351.5
1773.66	352
1771.93	367.5
1770.19	355.5
1768.46	360
1766.73	377
1765	351
1763.27	375
1761.54	389
1759.8	391
1758.07	398
1756.34	405
1754.6	444.5
1752.87	477.5
1751.13	428.5
1749.4	442.5
1747.66	452
1745.92	412.5
1744.19	442
1742.45	435.5
1740.71	430
1738.97	409
1737.23	420.5
1735.49	373.5
1733.75	380
1732.01	425
1730.27	406
1728.53	363.5
1726.79	388.5
1725.05	363
1723.31	334
1721.57	347.5
1719.82	355
1718.08	349
1716.34	352
1714.59	339.5
1712.85	349.5
1711.1	354
1709.36	355.5
1707.61	365
1705.86	331
1704.12	325.5
1702.37	354.5
1700.62	334.5
1698.87	350
1697.12	327.5
1695.37	357
1693.62	304
1691.87	332
1690.12	389.5
1688.37	358.5
1686.62	332
1684.87	350.5
1683.12	348
1681.36	370
1679.61	338
1677.86	351.5
1676.1	379.5
1674.35	373.5
1672.59	398
1670.84	419
1669.08	449
1667.33	463.5
1665.57	540
1663.81	590.5
1662.06	635.5
1660.3	664.5
1658.54	692
1656.78	700
1655.02	683.5
1653.26	638
1651.5	592
1649.74	550
1647.98	488
1646.22	438
1644.46	445
1642.7	400.5
1640.93	375
1639.17	386.5
1637.41	338
1635.64	370.5
1633.88	327
1632.11	345
1630.35	354
1628.58	323.5
1626.81	322
1625.05	338
1623.28	347
1621.51	318.5
1619.75	319.5
1617.98	334
1616.21	345
1614.44	352
1612.67	317
1610.9	331.5
1609.13	321
1607.36	353.5
1605.58	305.5
1603.81	332
1602.04	325
1600.27	338
1598.49	341.5
1596.72	348
1594.95	313
1593.17	318
1591.4	352
1589.62	332
1587.84	318
1586.07	327
1584.29	342
1582.51	307.5
1580.74	332
1578.96	322.5
1577.18	319.5
1575.4	316.5
1573.62	347
1571.84	326.5
1570.06	338.5
1568.28	332
1566.5	348
1564.72	328.5
1562.93	314
1561.15	336.5
1559.37	314
1557.58	359.5
1555.8	343
1554.02	357.5
1552.23	321.5
1550.45	331
1548.66	335.5
1546.87	358
1545.09	318
1543.3	325
1541.51	322
1539.72	315
1537.94	339
1536.15	318
1534.36	347.5
1532.57	351
1530.78	307
1528.99	315
1527.2	326
1525.4	334.5
1523.61	357
1521.82	355
1520.03	335.5
1518.23	325
1516.44	331.5
1514.65	339
1512.85	343
1511.06	371
1509.26	338
1507.46	350
1505.67	366.5
1503.87	361
1502.07	364
1500.28	357
1498.48	383
1496.68	355
1494.88	339
1493.08	388
1491.28	404
1489.48	437
1487.68	405.5
1485.88	445
1484.08	465
1482.27	465
1480.47	488
1478.67	539.5
1476.86	522
1475.06	555.5
1473.25	586
1471.45	677.5
1469.64	715
1467.84	761
1466.03	806
1464.23	878.5
1462.42	914
1460.61	962
1458.8	978
1456.99	1033
1455.18	1032
1453.37	1005
1451.56	1115.5
1449.75	1135.5
1447.94	1211.5
1446.13	1222.5
1444.32	1296
1442.51	1302
1440.7	1327
1438.88	1260
1437.07	1192
1435.26	1078
1433.44	933.5
1431.63	831
1429.81	742
1427.99	708.5
1426.18	625
1424.36	584.5
1422.54	579
1420.73	559.5
1418.91	527
1417.09	511
1415.27	462
1413.45	449
1411.63	430
1409.81	456
1407.99	447.5
1406.17	408
1404.35	445
1402.53	443
1400.7	418
1398.88	398
1397.06	385
1395.23	376
1393.41	399
1391.58	393
1389.76	366.5
1387.93	366
1386.11	380
1384.28	351
1382.45	407.5
1380.62	374
1378.8	412
1376.97	390
1375.14	438
1373.31	421.5
1371.48	460
1369.65	450
1367.82	433.5
1365.99	443
1364.16	400
1362.32	430.5
1360.49	422
1358.66	422
1356.82	434
1354.99	430
1353.16	431
1351.32	432
1349.48	438
1347.65	437.5
1345.81	459
1343.98	428
1342.14	432.5
1340.3	466
1338.46	452.5
1336.62	454
1334.79	467
1332.95	483.5
1331.11	489
1329.27	505.5
1327.42	527
1325.58	530
1323.74	594
1321.9	627
1320.06	652
1318.21	655
1316.37	696.5
1314.53	739.5
1312.68	771
1310.84	818
1308.99	885
1307.15	964
1305.3	975
1303.45	1047
1301.61	1063
1299.76	1021.5
1297.91	972
1296.06	930.5
1294.21	829.5
1292.36	807.5
1290.51	752
1288.66	696
1286.81	689.5
1284.96	685
1283.11	682
1281.26	655
1279.4	674
1277.55	712
1275.7	702.5
1273.84	694.5
1271.99	672.5
1270.13	718
1268.28	754.5
1266.42	717.5
1264.56	726
1262.71	721.5
1260.85	728.5
1258.99	682
1257.13	655.5
1255.27	615
1253.41	600
1251.56	609
1249.7	539
1247.83	550
1245.97	549
1244.11	528
1242.25	506
1240.39	461
1238.52	474.5
1236.66	462
1234.8	467
1232.93	468.5
1231.07	437.5
1229.2	452
1227.34	424.5
1225.47	393.5
1223.6	437.5
1221.74	458
1219.87	421.5
1218	435
1216.13	429
1214.26	376
1212.39	414.5
1210.53	455.5
1208.65	400
1206.78	407
1204.91	384
1203.04	429
1201.17	417
1199.3	442
1197.42	419
1195.55	374.5
1193.68	418.5
1191.8	426
1189.93	405
1188.05	416
1186.17	394
1184.3	415
1182.42	438.5
1180.54	437
1178.67	416
1176.79	423.5
1174.91	418
1173.03	430.5
1171.15	396
1169.27	418
1167.39	428
1165.51	424
1163.63	428
1161.75	419.5
1159.86	407
1157.98	414
1156.1	422
1154.21	429.5
1152.33	433
1150.44	432
1148.56	423
1146.67	462
1144.79	467
1142.9	460
1141.01	442.5
1139.12	452
1137.24	500.5
1135.35	471
1133.46	560
1131.57	558
1129.68	629
1127.79	581
1125.9	599.5
1124.01	567.5
1122.12	601.5
1120.22	572
1118.33	586.5
1116.44	556.5
1114.54	555
1112.65	575
1110.75	560
1108.86	573
1106.96	582
1105.07	588
1103.17	626.5
1101.27	669.5
1099.38	679.5
1097.48	683
1095.58	691
1093.68	707
1091.78	748.5
1089.88	809
1087.98	762
1086.08	844
1084.18	819
1082.28	819
1080.38	829
1078.47	829.5
1076.57	814
1074.67	820
1072.76	784
1070.86	776
1068.95	813
1067.05	838.5
1065.14	816
1063.24	847
1061.33	797
1059.42	728
1057.51	667
1055.6	661
1053.7	650
1051.79	616.5
1049.88	618
1047.97	624.5
1046.06	617
1044.14	565
1042.23	608
1040.32	591
1038.41	579.5
1036.5	629.5
1034.58	588
1032.67	588
1030.75	603.5
1028.84	565
1026.92	601.5
1025.01	556
1023.09	599.5
1021.17	560
1019.26	590
1017.34	598
1015.42	559.5
1013.5	566
1011.58	530
1009.66	541
1007.74	515
1005.82	548
1003.9	576
1001.98	523.5
1000.06	503
998.134	564.5
996.212	573
994.288	528
992.364	535
990.44	571
988.515	558
986.589	558.5
984.663	573
982.737	597.5
980.81	571
978.883	616
976.955	649
975.027	655
973.098	660
971.169	680.5
969.239	662
967.308	639.5
965.378	658
963.447	630
961.516	636
959.583	640.5
957.65	649
955.718	629
953.784	659.5
951.85	641
949.916	625
947.981	671
946.045	636
944.109	666
942.173	689
940.236	647
938.298	668
936.36	716
934.422	668.5
932.484	666
930.544	642
928.604	645.5
926.664	678
924.724	649.5
922.782	646
920.84	657
918.898	655
916.955	665
915.012	664
913.068	673.5
911.124	670
909.18	656
907.235	682.5
905.289	684
903.343	679
901.397	687
899.45	694
897.502	721
895.554	738
893.605	772
891.657	749
889.707	751
887.758	764.5
885.807	749
883.856	778.5
881.905	749.5
879.953	788
878.001	778
876.048	820
874.094	823.5
872.14	806
870.186	782
868.232	811
866.276	822
864.321	807
862.365	781.5
860.408	777
858.451	819
856.493	779.5
854.535	788
852.576	778
850.617	791
848.658	778
846.698	762
844.737	759
842.776	731
840.814	722.5
838.852	721.5
836.89	747
834.927	699
832.963	671
830.999	697
829.035	657
827.07	644
825.105	652.5
823.139	620
821.172	643
819.206	600
817.238	582
815.27	590.5
813.301	601
811.333	579
809.363	578.5
807.394	549.5
805.424	537
803.453	532
801.482	553
799.509	548
797.538	522.5
795.565	543
793.592	541
791.618	519.5
789.643	493
787.669	514.5
785.693	476.5
783.718	501
781.742	516.5
779.765	513.5
777.788	505
775.811	498.5
773.832	507
771.853	509.5
769.875	505
767.895	490
765.915	511
763.934	487.5
761.953	527
759.972	498.5
757.99	491
756.007	508.5
754.024	502.5
752.041	507.5
750.056	508.5
748.072	522
746.087	505.5
744.102	506.5
742.116	501
740.13	524.5
738.143	534
736.155	521
734.167	502.5
732.179	535
730.19	541
728.2	514
726.21	540
724.22	537
722.229	533.5
720.237	507.5
718.246	501
716.253	518.5
714.26	515
712.267	517.5
710.273	503
708.279	487
706.284	485
704.289	491
702.293	496
700.296	508
698.3	473
696.303	504
694.305	492.5
692.307	488
690.307	500
688.308	479
686.309	488.5
684.308	486
682.308	502.5
680.306	500
678.304	490
676.302	489
674.3	494
672.296	510
670.293	491.5
668.289	487.5
666.284	515
664.278	505
662.273	519.5
660.266	509.5
658.26	513
656.252	505
654.244	503.5
652.237	472
650.227	525
648.218	503
646.209	522
644.198	527.5
642.188	536.5
640.177	535
638.165	523.5
636.153	525
634.14	519
632.128	539.5
630.113	534
628.099	574
626.085	556.5
624.07	548
622.054	561.5
620.038	591
618.021	550
616.004	547
613.986	557
611.968	602.5
609.949	592
607.93	581
605.911	598.5
603.891	607.5
601.87	598
599.848	567
597.827	551
595.805	592
593.782	577
591.759	600.5
589.735	586
587.711	561
585.687	585.5
583.661	552
581.636	597
579.609	585
577.583	570.5
575.555	559
573.527	558.5
571.5	566.5
569.471	555.5
567.441	592.5
565.412	568
563.382	544
561.351	559
559.32	611
557.289	591
555.257	615
553.223	614
551.19	616
549.157	640
547.122	633
545.088	649
543.053	647
541.017	654
538.981	684
536.943	735
534.907	738.5
532.869	847
530.831	998
528.792	1251
526.752	1625
524.713	2272
522.673	2617.5
520.632	2624
518.591	2283.5
516.549	1782
514.507	1353
512.464	1087
510.42	914.5
508.377	813
506.332	759
504.288	750.5
502.242	727
500.196	696
498.15	700
496.104	711
494.056	706
492.008	703
489.96	687.5
487.911	678.5
485.862	718
483.812	682
481.761	658.5
479.71	684.5
477.659	691.5
475.607	695.5
473.555	691
471.502	672.5
469.448	680
467.395	704.5
465.34	674
463.285	702
461.23	684
459.174	687
457.118	698
455.061	687
453.003	714.5
450.945	686
448.887	736
446.828	677
444.768	681
442.708	708.5
440.647	741
438.587	730.5
436.525	738
434.463	731
432.4	705
430.337	754
428.274	714.5
426.21	731
424.145	734.5
422.079	768.5
420.014	728.5
417.948	744
415.882	748
413.814	753
411.746	771.5
409.679	769
407.609	774.5
405.54	731.5
403.47	763
401.401	736
399.329	762.5
397.258	750.5
395.187	736
393.114	769
391.041	774.5
388.968	745.5
386.895	783
384.82	778
382.745	786
380.67	763.5
378.594	789.5
376.517	786
374.44	781.5
372.363	801.5
370.286	771
368.207	808.5
366.128	766.5
364.049	799.5
361.969	814.5
359.888	798
357.807	779
355.725	768
353.643	800
351.561	773.5
349.477	832.5
347.394	808.5
345.31	792
343.226	770
341.141	824
339.055	817.5
336.968	818.5
334.882	817.5
332.795	855
330.707	866
328.618	829
326.53	842
324.44	835
322.351	842
320.26	877
318.17	870.5
316.078	883
313.987	902.5
311.895	877
309.802	931
307.708	944
305.614	939
303.52	963.5
301.425	959.5
299.329	975.5
297.233	974
295.137	966
293.039	911.5
290.942	996
288.844	967.5
286.745	970
284.647	955
282.546	985.5
280.446	970.5
278.346	1019
276.245	973
274.143	957
272.041	1043.5
269.939	968
267.835	1025
265.731	1011
263.627	1025.5
261.522	1015.5
259.417	1024
257.311	1075
255.204	1071
253.098	1064
250.99	1089.5
248.882	1078
246.774	1079
244.664	1082
242.555	1093
240.445	1118.5
238.334	1083.5
236.223	1147
234.112	1117
232	1079
229.888	1164.5
227.775	1165
225.661	1171
223.546	1169
221.431	1224
219.316	1223.5
217.201	1252
215.084	1209
212.967	1185
210.85	1213
208.732	1237
206.614	1190
204.495	1237.5
202.375	1241.5
200.256	1221
198.135	1189.5
196.014	1225
193.893	1278.5
191.771	1197.5
189.648	1256
187.525	1222
185.401	1191
183.277	1185
181.152	1219
179.027	1183
176.901	1270.5
174.775	1216
172.648	1214
170.521	1226.5
168.393	1230.5
166.265	1297.5
164.136	1283
162.007	1278
159.876	1283
157.746	1305
155.615	1360.5
153.483	1385
151.351	1391
149.219	1401.5
147.086	1459.5
144.952	1514
142.818	1545
140.684	1561.5
138.548	1559.5
136.413	1635.5
134.276	1717
132.139	1723
130.002	1779
127.864	1847
125.725	1889
123.587	1956
121.447	2061.5
119.307	2065
117.166	2131.5
115.026	2237.5
112.885	2344.5
110.743	2377
108.6	2505.5
106.456	2514
104.313	2484
102.169	2500
100.023	2455.5
97.8789	2301
95.7328	2124.5
93.5869	1892
91.4392	1607.5
89.2919	1298.5
87.1447	1057
84.9959	799
