3528.51	34.5
3527.23	44.5
3525.95	43
3524.67	70
3523.39	32
3522.1	67
3520.82	32
3519.54	47
3518.26	46.5
3516.97	43.5
3515.69	48.5
3514.4	53.5
3513.12	48
3511.84	39
3510.55	38
3509.26	37
3507.98	68.5
3506.69	62.5
3505.41	57.5
3504.12	54
3502.83	17
3501.54	78
3500.26	52
3498.97	57.5
3497.68	56
3496.39	53.5
3495.1	68
3493.81	59
3492.52	45
3491.23	36.5
3489.94	73.5
3488.65	73.5
3487.36	45.5
3486.07	54
3484.78	73
3483.49	74
3482.19	61.5
3480.9	77.5
3479.61	69
3478.31	64.5
3477.02	53
3475.73	71.5
3474.43	63.5
3473.14	84
3471.84	82
3470.54	74.5
3469.25	74
3467.95	76
3466.66	68.5
3465.36	57
3464.06	40.5
3462.76	69.5
3461.46	70
3460.17	59
3458.87	76
3457.57	46
3456.27	85.5
3454.97	65.5
3453.67	74.5
3452.37	79.5
3451.07	93.5
3449.77	66
3448.47	72.5
3447.16	95.5
3445.86	83
3444.56	79
3443.26	117.5
3441.95	73
3440.65	102
3439.35	75
3438.04	93
3436.74	93
3435.43	105.5
3434.13	84
3432.82	96.5
3431.52	83.5
3430.21	132.5
3428.9	61
3427.6	99
3426.29	104.5
3424.98	95
3423.67	104
3422.36	105.5
3421.06	109.5
3419.75	116
3418.44	93.5
3417.13	124
3415.82	128.5
3414.51	99
3413.2	107
3411.88	111
3410.57	114.5
3409.26	125
3407.95	131
3406.64	120.5
3405.32	125
3404.01	124.5
3402.7	110
3401.38	143.5
3400.07	127.5
3398.75	125
3397.44	118
3396.12	132
3394.81	114.5
3393.49	117
3392.18	144.5
3390.86	132
3389.54	141
3388.23	133.5
3386.91	135.5
3385.59	147.5
3384.27	143
3382.95	131.5
3381.63	126.5
3380.31	132
3378.99	142
3377.67	127
3376.35	146
3375.03	141.5
3373.71	142.5
3372.39	148.5
3371.07	162
3369.75	157
3368.42	171.5
3367.1	131.5
3365.78	139.5
3364.45	173
3363.13	158.5
3361.81	175.5
3360.48	168
3359.16	189
3357.83	162.5
3356.51	145.5
3355.18	149.5
3353.85	157
3352.53	159
3351.2	161
3349.87	155.5
3348.54	178.5
3347.22	162
3345.89	169.5
3344.56	162.5
3343.23	176.5
3341.9	162.5
3340.57	151.5
3339.24	155
3337.91	185
3336.58	176.5
3335.25	172.5
3333.92	168
3332.58	187
3331.25	167
3329.92	181.5
3328.59	182
3327.25	186.5
3325.92	170.5
3324.58	168.5
3323.25	180.5
3321.92	174.5
3320.58	181.5
3319.25	165.5
3317.91	197
3316.57	173
3315.24	164
3313.9	175.5
3312.56	182
3311.23	200
3309.89	195.5
3308.55	173
3307.21	187
3305.87	187.5
3304.53	199.5
3303.19	168.5
3301.85	192.5
3300.51	174.5
3299.17	187
3297.83	192.5
3296.49	188
3295.15	191.5
3293.81	199
3292.46	190
3291.12	173
3289.78	175
3288.43	182.5
3287.09	167.5
3285.75	165.5
3284.4	187.5
3283.06	221
3281.71	202
3280.37	223
3279.02	181
3277.67	177
3276.33	206
3274.98	209.5
3273.63	205.5
3272.28	212
3270.94	185
3269.59	195.5
3268.24	199
3266.89	207.5
3265.54	222.5
3264.19	216.5
3262.84	218
3261.49	212.5
3260.14	230
3258.79	208.5
3257.44	204.5
3256.08	234.5
3254.73	221
3253.38	242.5
3252.03	222.5
3250.67	237.5
3249.32	262
3247.96	221
3246.61	247
3245.26	274.5
3243.9	259.5
3242.54	282
3241.19	298.5
3239.83	312
3238.48	285
3237.12	300.5
3235.76	324
3234.41	274.5
3233.05	338.5
3231.69	326
3230.33	325.5
3228.97	345.5
3227.61	368
3226.25	355.5
3224.89	337.5
3223.53	384
3222.17	399
3220.81	378.5
3219.45	388.5
3218.09	401.5
3216.72	423.5
3215.36	408.5
3214	408.5
3212.63	425
3211.27	428
3209.91	411.5
3208.54	465
3207.18	436
3205.81	442
3204.45	449.5
3203.08	455
3201.71	454
3200.35	481
3198.98	459
3197.61	466
3196.25	483
3194.88	445
3193.51	446
3192.14	425.5
3190.77	452
3189.4	502.5
3188.03	491.5
3186.66	458
3185.29	479
3183.92	529
3182.55	474.5
3181.18	488.5
3179.81	461
3178.44	488
3177.06	500
3175.69	490.5
3174.32	511.5
3172.94	481
3171.57	510
3170.2	500.5
3168.82	530
3167.45	516
3166.07	526
3164.69	526
3163.32	534
3161.94	525.5
3160.56	553
3159.19	552.5
3157.81	536
3156.43	508
3155.05	550.5
3153.67	570.5
3152.3	583.5
3150.92	574.5
3149.54	568
3148.16	553.5
3146.78	578.5
3145.4	571.5
3144.01	576.5
3142.63	617
3141.25	592.5
3139.87	588
3138.49	605
3137.1	616
3135.72	619.5
3134.34	652
3132.95	630
3131.57	634.5
3130.18	613
3128.8	642.5
3127.41	655.5
3126.03	627
3124.64	653
3123.25	616.5
3121.87	641.5
3120.48	687
3119.09	668.5
3117.7	648
3116.32	689
3114.93	653.5
3113.54	624
3112.15	664.5
3110.76	697
3109.37	659.5
3107.98	712
3106.59	717.5
3105.2	684.5
3103.8	703
3102.41	718
3101.02	712
3099.63	697
3098.23	731.5
3096.84	716
3095.45	694
3094.05	688.5
3092.66	708
3091.26	692.5
3089.87	668
3088.47	736
3087.08	721.5
3085.68	732
3084.28	719
3082.89	736
3081.49	730.5
3080.09	744.5
3078.69	756.5
3077.3	759.5
3075.9	740.5
3074.5	758
3073.1	751
3071.7	749.5
3070.3	749.5
3068.9	750
3067.5	719.5
3066.09	752
3064.69	765
3063.29	741
3061.89	748
3060.48	755.5
3059.08	766.5
3057.68	774
3056.27	757
3054.87	768
3053.46	791
3052.06	800.5
3050.65	780.5
3049.25	791.5
3047.84	795.5
3046.44	771
3045.03	761
3043.62	817.5
3042.21	769.5
3040.81	759
3039.4	818.5
3037.99	809
3036.58	789
3035.17	803.5
3033.76	833
3032.35	798.5
3030.94	786
3029.53	814.5
3028.12	841.5
3026.71	834
3025.29	812.5
3023.88	840.5
3022.47	829
3021.06	809.5
3019.64	838.5
3018.23	832.5
3016.82	880
3015.4	825.5
3013.99	839.5
3012.57	880
3011.15	836.5
3009.74	856
3008.32	878
3006.91	858.5
3005.49	870
3004.07	866
3002.65	832
3001.24	888.5
2999.82	843.5
2998.4	892.5
2996.98	877
2995.56	912
2994.14	928
2992.72	869
2991.3	907
2989.88	873
2988.46	928
2987.03	972.5
2985.61	950.5
2984.19	929
2982.77	926
2981.34	976
2979.92	926
2978.49	958.5
2977.07	964
2975.65	956
2974.22	1016
2972.79	988
2971.37	1023.5
2969.94	1041.5
2968.52	982.5
2967.09	1045.5
2965.66	1021.5
2964.23	1084.5
2962.81	1044.5
2961.38	1052
2959.95	1065
2958.52	1091
2957.09	1073
2955.66	1095.5
2954.23	1103.5
2952.8	1137
2951.37	1105.5
2949.94	1107.5
2948.5	1153
2947.07	1137.5
2945.64	1146
2944.21	1142
2942.77	1156.5
2941.34	1158
2939.91	1189.5
2938.47	1231.5
2937.04	1202.5
2935.6	1228
2934.17	1271
2932.73	1258
2931.29	1286
2929.86	1255.5
2928.42	1298.5
2926.98	1315.5
2925.55	1289
2924.11	1283.5
2922.67	1284.5
2921.23	1320
2919.79	1297
2918.35	1305
2916.91	1344
2915.47	1345
2914.03	1313.5
2912.59	1329
2911.15	1380
2909.71	1358
2908.26	1412.5
2906.82	1395
2905.38	1399.5
2903.94	1381.5
2902.49	1375.5
2901.05	1380.5
2899.6	1420
2898.16	1397.5
2896.71	1370.5
2895.27	1414.5
2893.82	1440.5
2892.38	1378
2890.93	1437
2889.48	1435
2888.03	1431.5
2886.59	1442.5
2885.14	1428
2883.69	1438
2882.24	1439.5
2880.79	1477
2879.34	1417
2877.89	1410.5
2876.44	1455.5
2874.99	1453
2873.54	1498.5
2872.09	1424
2870.64	1452.5
2869.18	1444
2867.73	1432.5
2866.28	1447
2864.83	1443
2863.37	1437.5
2861.92	1444
2860.46	1419.5
2859.01	1471.5
2857.55	1471.5
2856.1	1464.5
2854.64	1429.5
2853.19	1457
2851.73	1491.5
2850.27	1460
2848.81	1439
2847.36	1423
2845.9	1441
2844.44	1361.5
2842.98	1382
2841.52	1349
2840.06	1342.5
2838.6	1340.5
2837.14	1299.5
2835.68	1235.5
2834.22	1248.5
2832.76	1189
2831.3	1225
2829.83	1165
2828.37	1159.5
2826.91	1137
2825.44	1132.5
2823.98	1139
2822.52	1138
2821.05	1125.5
2819.59	1134
2818.12	1102.5
2816.66	1092
2815.19	1080.5
2813.72	1123
2812.26	1076.5
2810.79	1071
2809.32	1058
2807.85	1085
2806.38	1065.5
2804.92	1011.5
2803.45	1037
2801.98	1042
2800.51	1034.5
2799.04	1042.5
2797.57	1057.5
2796.1	1028.5
2794.62	1060
2793.15	1069.5
2791.68	986.5
2790.21	1035
2788.73	1045
2787.26	1027
2785.79	1002.5
2784.31	1040.5
2782.84	1087.5
2781.36	1122
2779.89	1174
2778.41	1141
2776.94	1196
2775.46	1160
2773.99	1161
2772.51	1163
2771.03	1138
2769.55	1100
2768.07	1150
2766.6	1130
2765.12	1140
2763.64	1131
2762.16	1106
2760.68	1008
2759.2	998
2757.72	955
2756.24	984.5
2754.75	962.5
2753.27	1056.5
2751.79	993.5
2750.31	995.5
2748.82	1043
2747.34	1037
2745.86	1011
2744.37	1025.5
2742.89	1021
2741.4	995
2739.92	1009.5
2738.43	1019.5
2736.94	1033
2735.46	1049.5
2733.97	1011.5
2732.48	1065
2731	998
2729.51	1059
2728.02	1047.5
2726.53	1052
2725.04	1018.5
2723.55	1034.5
2722.06	1006.5
2720.57	1057.5
2719.08	1040
2717.59	1068
2716.1	1012.5
2714.61	1020.5
2713.11	994.5
2711.62	1025.5
2710.13	994
2708.64	1006
2707.14	1037
2705.65	985.5
2704.15	982
2702.66	985
2701.16	1016
2699.67	1016
2698.17	974.5
2696.67	977.5
2695.18	1011.5
2693.68	1000
2692.18	1002.5
2690.69	975
2689.19	992.5
2687.69	946
2686.19	997.5
2684.69	985.5
2683.19	962
2681.69	985.5
2680.19	953.5
2678.69	973
2677.19	943.5
2675.68	990.5
2674.18	985.5
2672.68	976.5
2671.18	986
2669.67	938
2668.17	951.5
2666.66	930
2665.16	964.5
2663.66	985.5
2662.15	953.5
2660.64	937.5
2659.14	960
2657.63	956.5
2656.13	971.5
2654.62	985.5
2653.11	962.5
2651.6	958
2650.09	924
2648.58	931
2647.08	947
2645.57	977
2644.06	932
2642.55	912
2641.04	964.5
2639.52	941
2638.01	927.5
2636.5	929.5
2634.99	926
2633.48	924
2631.96	930.5
2630.45	934
2628.94	946.5
2627.42	925
2625.91	908.5
2624.39	953
2622.88	899
2621.36	918.5
2619.85	924
2618.33	906.5
2616.81	909.5
2615.3	896.5
2613.78	919
2612.26	897
2610.74	863
2609.22	959
2607.7	916.5
2606.18	905
2604.66	892.5
2603.14	917
2601.62	893
2600.1	891.5
2598.58	915
2597.06	876
2595.54	884.5
2594.01	889.5
2592.49	878.5
2590.97	873.5
2589.44	888
2587.92	888
2586.39	845
2584.87	860.5
2583.34	896
2581.82	898.5
2580.29	881.5
2578.76	853.5
2577.24	912.5
2575.71	808
2574.18	860.5
2572.65	880
2571.13	837.5
2569.6	861.5
2568.07	876
2566.54	852
2565.01	846
2563.48	859
2561.95	865
2560.42	828.5
2558.88	831.5
2557.35	815
2555.82	812.5
2554.29	836.5
2552.75	842.5
2551.22	825.5
2549.69	838
2548.15	817.5
2546.62	850
2545.08	820.5
2543.55	859
2542.01	821.5
2540.47	843
2538.94	831.5
2537.4	797.5
2535.86	842
2534.33	800
2532.79	798.5
2531.25	795.5
2529.71	809
2528.17	795
2526.63	822.5
2525.09	820.5
2523.55	744
2522.01	797
2520.47	790
2518.92	807.5
2517.38	778
2515.84	779.5
2514.3	761
2512.75	762.5
2511.21	739.5
2509.67	783.5
2508.12	806.5
2506.58	745.5
2505.03	755.5
2503.49	777
2501.94	757
2500.39	755.5
2498.85	744
2497.3	726.5
2495.75	743
2494.2	730.5
2492.65	758
2491.11	804.5
2489.56	753
2488.01	756.5
2486.46	753.5
2484.91	739.5
2483.36	727
2481.8	710.5
2480.25	744.5
2478.7	707.5
2477.15	739
2475.6	724.5
2474.04	726
2472.49	749
2470.93	718
2469.38	690.5
2467.83	713.5
2466.27	743
2464.71	719
2463.16	700.5
2461.6	719.5
2460.05	693.5
2458.49	687.5
2456.93	690.5
2455.37	664.5
2453.81	673.5
2452.26	679
2450.7	655.5
2449.14	703.5
2447.58	693
2446.02	683
2444.46	676.5
2442.9	658.5
2441.33	655
2439.77	711.5
2438.21	652
2436.65	650.5
2435.08	646.5
2433.52	663.5
2431.96	679
2430.39	639.5
2428.83	672
2427.26	669.5
2425.7	666.5
2424.13	619
2422.56	669
2421	623
2419.43	675
2417.86	665.5
2416.3	642
2414.73	643
2413.16	652
2411.59	666.5
2410.02	612
2408.45	653.5
2406.88	654
2405.31	627
2403.74	604.5
2402.17	626.5
2400.6	613
2399.02	639.5
2397.45	648.5
2395.88	627
2394.3	628.5
2392.73	637.5
2391.16	595
2389.58	617
2388.01	610.5
2386.43	673.5
2384.86	610
2383.28	610.5
2381.7	587
2380.13	608
2378.55	609.5
2376.97	609.5
2375.39	631
2373.81	607.5
2372.23	633.5
2370.65	625
2369.07	611
2367.49	617.5
2365.91	594
2364.33	605
2362.75	606
2361.17	584
2359.59	574
2358.01	594
2356.42	600
2354.84	626.5
2353.25	570
2351.67	596.5
2350.09	593
2348.5	575
2346.92	597.5
2345.33	588
2343.74	577
2342.16	601.5
2340.57	589
2338.98	574
2337.39	554
2335.81	598
2334.22	612.5
2332.63	563
2331.04	595
2329.45	606
2327.86	589.5
2326.27	574
2324.68	575
2323.09	594
2321.49	558
2319.9	581.5
2318.31	564
2316.72	570.5
2315.12	581.5
2313.53	573
2311.93	574
2310.34	571
2308.74	536
2307.15	538
2305.55	567
2303.96	549
2302.36	551.5
2300.76	549
2299.17	540.5
2297.57	523
2295.97	531
2294.37	550.5
2292.77	565.5
2291.17	545
2289.57	559
2287.97	528.5
2286.37	532
2284.77	521.5
2283.17	504
2281.57	572.5
2279.96	545
2278.36	541
2276.76	547.5
2275.15	521.5
2273.55	533
2271.95	544
2270.34	534
2268.74	481
2267.13	509.5
2265.52	502
2263.92	501.5
2262.31	491.5
2260.7	468
2259.1	522
2257.49	503.5
2255.88	522
2254.27	508.5
2252.66	509
2251.05	519
2249.44	499.5
2247.83	491.5
2246.22	482.5
2244.61	491.5
2243	535
2241.39	500
2239.77	475.5
2238.16	500
2236.55	492.5
2234.93	483.5
2233.32	490
2231.7	444.5
2230.09	476
2228.47	471.5
2226.86	493
2225.24	432
2223.63	463.5
2222.01	473
2220.39	478
2218.77	498.5
2217.16	502.5
2215.54	475
2213.92	487
2212.3	480.5
2210.68	472.5
2209.06	476
2207.44	467.5
2205.82	475.5
2204.19	473
2202.57	471
2200.95	461.5
2199.33	485
2197.7	464
2196.08	448
2194.46	471.5
2192.83	483.5
2191.21	456.5
2189.58	458
2187.96	437
2186.33	468
2184.7	454
2183.08	450
2181.45	442.5
2179.82	431
2178.19	461.5
2176.57	418
2174.94	501.5
2173.31	433
2171.68	416
2170.05	429
2168.42	443
2166.79	444.5
2165.16	410
2163.52	468
2161.89	417
2160.26	411.5
2158.63	435.5
2156.99	422.5
2155.36	442.5
2153.73	446.5
2152.09	441.5
2150.46	410.5
2148.82	444
2147.18	453
2145.55	422.5
2143.91	445
2142.27	424.5
2140.64	408.5
2139	408.5
2137.36	388.5
2135.72	406
2134.08	408.5
2132.44	400
2130.8	401.5
2129.16	413
2127.52	407
2125.88	392.5
2124.24	417.5
2122.6	421.5
2120.95	416.5
2119.31	395
2117.67	391
2116.02	393
2114.38	412
2112.74	394.5
2111.09	362.5
2109.45	389
2107.8	395
2106.15	397.5
2104.51	376
2102.86	386.5
2101.21	381
2099.56	377.5
2097.92	392
2096.27	371.5
2094.62	386.5
2092.97	353.5
2091.32	373
2089.67	387
2088.02	374.5
2086.37	369.5
2084.72	377
2083.06	354.5
2081.41	374.5
2079.76	373.5
2078.1	343
2076.45	357.5
2074.8	393.5
2073.14	367
2071.49	354.5
2069.83	375
2068.18	355
2066.52	370.5
2064.86	359.5
2063.21	375.5
2061.55	356.5
2059.89	339.5
2058.23	358
2056.57	351.5
2054.92	370.5
2053.26	369.5
2051.6	375
2049.94	374.5
2048.27	342
2046.61	340
2044.95	406
2043.29	361.5
2041.63	323.5
2039.97	339
2038.3	379
2036.64	360
2034.97	360
2033.31	344.5
2031.64	358
2029.98	355
2028.31	346.5
2026.65	333.5
2024.98	327
2023.31	340
2021.65	348.5
2019.98	336
2018.31	330
2016.64	352.5
2014.97	358.5
2013.3	333
2011.63	332.5
2009.96	359
2008.29	367.5
2006.62	312.5
2004.95	349.5
2003.28	355
2001.6	331.5
1999.93	330.5
1998.26	325
1996.58	342.5
1994.91	308
1993.24	331
1991.56	337
1989.89	323.5
1988.21	338
1986.53	338.5
1984.86	341
1983.18	335
1981.5	328
1979.82	337
1978.15	327.5
1976.47	325
1974.79	344
1973.11	335.5
1971.43	281.5
1969.75	313
1968.07	298.5
1966.38	317.5
1964.7	315
1963.02	332
1961.34	354
1959.66	333
1957.97	327.5
1956.29	302
1954.6	336.5
1952.92	312.5
1951.23	327
1949.55	312.5
1947.86	336.5
1946.18	337
1944.49	313.5
1942.8	324
1941.11	298.5
1939.43	325
1937.74	299
1936.05	313
1934.36	276.5
1932.67	299
1930.98	311
1929.29	304
1927.6	288
1925.91	297.5
1924.21	305.5
1922.52	322
1920.83	320.5
1919.14	276
1917.44	277.5
1915.75	291
1914.05	287
1912.36	318
1910.66	323
1908.97	314
1907.27	289
1905.58	299.5
1903.88	271.5
1902.18	273.5
1900.48	289
1898.79	306.5
1897.09	302.5
1895.39	302
1893.69	304
1891.99	310.5
1890.29	275
1888.59	298.5
1886.89	321.5
1885.18	254
1883.48	287
1881.78	298.5
1880.08	275.5
1878.37	293.5
1876.67	305
1874.96	279.5
1873.26	278
1871.55	287
1869.85	303.5
1868.14	255.5
1866.44	289.5
1864.73	266.5
1863.02	314.5
1861.32	284
1859.61	276
1857.9	265
1856.19	281.5
1854.48	299
1852.77	255
1851.06	257.5
1849.35	271
1847.64	271
1845.93	265.5
1844.21	264
1842.5	256.5
1840.79	262.5
1839.08	249.5
1837.36	280
1835.65	270.5
1833.93	256
1832.22	266.5
1830.5	268.5
1828.79	275.5
1827.07	285.5
1825.36	278
1823.64	268.5
1821.92	285.5
1820.2	271.5
1818.48	284.5
1816.77	273
1815.05	248
1813.33	277
1811.61	262
1809.89	252
1808.16	273
1806.44	281
1804.72	264.5
1803	279
1801.28	252.5
1799.55	301
1797.83	245
1796.11	270.5
1794.38	272.5
1792.66	266
1790.93	250.5
1789.21	284
1787.48	253.5
1785.75	261
1784.03	249
1782.3	284.5
1780.57	298
1778.84	280.5
1777.11	281.5
1775.38	248.5
1773.66	275
1771.93	286
1770.19	290
1768.46	273
1766.73	275.5
1765	296
1763.27	286.5
1761.54	291
1759.8	292
1758.07	302
1756.34	312
1754.6	333
1752.87	342
1751.13	335.5
1749.4	359.5
1747.66	367.5
1745.92	372
1744.19	347
1742.45	381
1740.71	343.5
1738.97	330
1737.23	368.5
1735.49	308.5
1733.75	292.5
1732.01	314.5
1730.27	310
1728.53	290.5
1726.79	324
1725.05	281.5
1723.31	253.5
1721.57	258
1719.82	270.5
1718.08	277
1716.34	247
1714.59	288
1712.85	248
1711.1	265.5
1709.36	257.5
1707.61	266.5
1705.86	290.5
1704.12	250.5
1702.37	248
1700.62	267
1698.87	283.5
1697.12	274
1695.37	259.5
1693.62	250
1691.87	287.5
1690.12	301
1688.37	277.5
1686.62	276.5
1684.87	281
1683.12	264
1681.36	295
1679.61	287.5
1677.86	300.5
1676.1	322.5
1674.35	323.5
1672.59	314.5
1670.84	357.5
1669.08	362
1667.33	408
1665.57	455
1663.81	539
1662.06	594.5
1660.3	612
1658.54	667.5
1656.78	637.5
1655.02	615.5
1653.26	597.5
1651.5	531.5
1649.74	509.5
1647.98	452
1646.22	399
1644.46	408.5
1642.7	315
1640.93	315.5
1639.17	311
1637.41	301.5
1635.64	322
1633.88	287.5
1632.11	316.5
1630.35	258.5
1628.58	267.5
1626.81	278.5
1625.05	287
1623.28	275.5
1621.51	282
1619.75	264.5
1617.98	282
1616.21	280.5
1614.44	281
1612.67	236
1610.9	269
1609.13	270.5
1607.36	272.5
1605.58	264
1603.81	262.5
1602.04	275.5
1600.27	288.5
1598.49	279
1596.72	274.5
1594.95	281.5
1593.17	276.5
1591.4	270
1589.62	287
1587.84	257.5
1586.07	266.5
1584.29	278
1582.51	249
1580.74	274.5
1578.96	276.5
1577.18	268.5
1575.4	274.5
1573.62	274
1571.84	278.5
1570.06	294.5
1568.28	276
1566.5	267
1564.72	287
1562.93	259
1561.15	290.5
1559.37	268.5
1557.58	308
1555.8	306
1554.02	326.5
1552.23	289
1550.45	277.5
1548.66	279
1546.87	277
1545.09	293
1543.3	272
1541.51	280
1539.72	272.5
1537.94	311
1536.15	304.5
1534.36	291.5
1532.57	301
1530.78	282
1528.99	243
1527.2	281
1525.4	292
1523.61	279.5
1521.82	312.5
1520.03	307.5
1518.23	299
1516.44	296.5
1514.65	297
1512.85	317.5
1511.06	318.5
1509.26	299.5
1507.46	276
1505.67	321.5
1503.87	322
1502.07	323
1500.28	293
1498.48	321.5
1496.68	347
1494.88	362
1493.08	343
1491.28	397
1489.48	346
1487.68	363.5
1485.88	387
1484.08	418
1482.27	444
1480.47	441
1478.67	477.5
1476.86	493
1475.06	535
1473.25	591
1471.45	593
1469.64	696.5
1467.84	745
1466.03	805
1464.23	845.5
1462.42	897
1460.61	983
1458.8	982
1456.99	1043
1455.18	1017.5
1453.37	1089
1451.56	1144
1449.75	1135
1447.94	1201.5
1446.13	1280
1444.32	1310.5
1442.51	1306.5
1440.7	1366.5
1438.88	1319.5
1437.07	1225
1435.26	1100
1433.44	958.5
1431.63	825.5
1429.81	716
1427.99	671
1426.18	638
1424.36	586
1422.54	572
1420.73	521
1418.91	522.5
1417.09	471
1415.27	456.5
1413.45	447
1411.63	405
1409.81	428.5
1407.99	417.5
1406.17	377
1404.35	414
1402.53	419
1400.7	387
1398.88	391
1397.06	363.5
1395.23	358
1393.41	379
1391.58	375
1389.76	340.5
1387.93	390
1386.11	361
1384.28	362.5
1382.45	365.5
1380.62	352
1378.8	365
1376.97	384
1375.14	405.5
1373.31	397.5
1371.48	412
1369.65	426
1367.82	392.5
1365.99	388.5
1364.16	419.5
1362.32	388
1360.49	401
1358.66	429
1356.82	416.5
1354.99	389
1353.16	408.5
1351.32	425
1349.48	424.5
1347.65	415
1345.81	415
1343.98	410
1342.14	405
1340.3	426
1338.46	443
1336.62	424
1334.79	436
1332.95	465.5
1331.11	535
1329.27	469
1327.42	540
1325.58	534.5
1323.74	599.5
1321.9	598
1320.06	626
1318.21	695
1316.37	679
1314.53	740
1312.68	771
1310.84	856
1308.99	905.5
1307.15	969
1305.3	981
1303.45	1037
1301.61	1060
1299.76	1052
1297.91	977
1296.06	956
1294.21	863.5
1292.36	840
1290.51	733
1288.66	694
1286.81	700
1284.96	673.5
1283.11	700
1281.26	670
1279.4	689
1277.55	682.5
1275.7	703
1273.84	684.5
1271.99	721
1270.13	731
1268.28	737
1266.42	721
1264.56	698
1262.71	729.5
1260.85	693
1258.99	687
1257.13	599
1255.27	597.5
1253.41	597.5
1251.56	553
1249.7	565.5
1247.83	527
1245.97	539.5
1244.11	534.5
1242.25	486
1240.39	488
1238.52	473
1236.66	455
1234.8	446.5
1232.93	427
1231.07	416
1229.2	422
1227.34	421.5
1225.47	394
1223.6	433.5
1221.74	429.5
1219.87	401
1218	409
1216.13	415.5
1214.26	392
1212.39	375
1210.53	426
1208.65	394
1206.78	390.5
1204.91	378
1203.04	401
1201.17	396
1199.3	402.5
1197.42	401.5
1195.55	391
1193.68	415
1191.8	409
1189.93	353
1188.05	408.5
1186.17	410.5
1184.3	423
1182.42	385
1180.54	400
1178.67	400
1176.79	390
1174.91	412
1173.03	379
1171.15	403.5
1169.27	411.5
1167.39	393
1165.51	411
1163.63	420.5
1161.75	388
1159.86	402
1157.98	423
1156.1	416.5
1154.21	380
1152.33	416
1150.44	420.5
1148.56	392.5
1146.67	430.5
1144.79	434.5
1142.9	444.5
1141.01	445.5
1139.12	441.5
1137.24	489.5
1135.35	492
1133.46	541
1131.57	571
1129.68	630
1127.79	604
1125.9	592
1124.01	587
1122.12	593.5
1120.22	577
1118.33	586
1116.44	595
1114.54	557
1112.65	564
1110.75	571
1108.86	564
1106.96	593
1105.07	582
1103.17	625.5
1101.27	644.5
1099.38	680.5
1097.48	692.5
1095.58	728.5
1093.68	739
1091.78	794.5
1089.88	840
1087.98	783
1086.08	841
1084.18	817.5
1082.28	848
1080.38	824
1078.47	835
1076.57	828
1074.67	817.5
1072.76	834.5
1070.86	778
1068.95	829
1067.05	834
1065.14	878
1063.24	863.5
1061.33	813
1059.42	792
1057.51	728.5
1055.6	671
1053.7	643
1051.79	656.5
1049.88	616.5
1047.97	637
1046.06	596
1044.14	605.5
1042.23	590.5
1040.32	606.5
1038.41	592
1036.5	611
1034.58	592
1032.67	576
1030.75	595
1028.84	586
1026.92	597.5
1025.01	608.5
1023.09	597.5
1021.17	577
1019.26	588.5
1017.34	578
1015.42	557.5
1013.5	570
1011.58	529
1009.66	531
1007.74	522
1005.82	540
1003.9	535
1001.98	516
1000.06	523.5
998.134	527
996.212	533.5
994.288	549.5
992.364	527
990.44	545
988.515	546
986.589	542
984.663	579.5
982.737	591
980.81	593.5
978.883	603
976.955	621
975.027	640
973.098	651
971.169	641
969.239	657
967.308	599
965.378	661
963.447	606.5
961.516	622
959.583	624
957.65	632.5
955.718	629
953.784	639
951.85	637
949.916	639
947.981	663.5
946.045	634
944.109	651.5
942.173	663.5
940.236	661.5
938.298	644
936.36	631
934.422	625
932.484	594
930.544	654
928.604	618
926.664	635
924.724	637
922.782	626
920.84	656
918.898	676.5
916.955	682
915.012	645
913.068	674.5
911.124	650
909.18	629
907.235	697
905.289	685.5
903.343	653
901.397	699
899.45	668
897.502	753
895.554	749.5
893.605	762
891.657	803
889.707	795
887.758	746
885.807	774.5
883.856	783
881.905	769.5
879.953	765
878.001	782
876.048	827
874.094	821
872.14	812.5
870.186	820
868.232	832
866.276	818
864.321	806
862.365	805
860.408	807.5
858.451	788
856.493	778
854.535	760.5
852.576	746
850.617	775
848.658	812
846.698	770.5
844.737	762
842.776	771
840.814	749.5
838.852	720
836.89	723
834.927	727.5
832.963	659.5
830.999	664
829.035	658
827.07	653
825.105	662.5
823.139	617
821.172	621.5
819.206	606
817.238	586
815.27	606.5
813.301	579
811.333	568.5
809.363	567.5
807.394	525
805.424	534.5
803.453	529
801.482	510
799.509	532
797.538	511
795.565	540
793.592	541
791.618	506
789.643	508.5
787.669	475
785.693	488
783.718	508
781.742	494.5
779.765	517
777.788	503
775.811	491.5
773.832	517
771.853	512
769.875	508.5
767.895	503.5
765.915	495.5
763.934	519
761.953	498
759.972	517
757.99	497
756.007	510.5
754.024	489.5
752.041	526
750.056	523
748.072	515
746.087	494
744.102	486.5
742.116	501
740.13	555.5
738.143	516
736.155	521
734.167	516
732.179	509
730.19	532
728.2	526
726.21	534.5
724.22	542.5
722.229	538
720.237	519.5
718.246	497
716.253	525.5
714.26	521
712.267	487
710.273	510
708.279	487
706.284	485.5
704.289	502
702.293	493.5
700.296	497
698.3	477
696.303	496
694.305	492
692.307	464
690.307	497
688.308	445
686.309	462
684.308	474
682.308	511.5
680.306	488
678.304	479.5
676.302	481
674.3	515
672.296	492.5
670.293	510
668.289	493
666.284	500
664.278	490
662.273	495
660.266	487
658.26	501.5
656.252	473.5
654.244	496.5
652.237	478
650.227	509.5
648.218	532.5
646.209	519.5
644.198	519
642.188	552.5
640.177	527
638.165	521
636.153	543.5
634.14	530
632.128	516
630.113	526.5
628.099	531
626.085	530.5
624.07	568
622.054	556
620.038	589.5
618.021	545
616.004	596.5
613.986	539.5
611.968	588
609.949	599.5
607.93	575
605.911	583.5
603.891	600
601.87	560
599.848	571.5
597.827	565
595.805	589.5
593.782	582
591.759	589.5
589.735	547
587.711	581
585.687	573
583.661	563
581.636	582.5
579.609	594
577.583	550.5
575.555	565.5
573.527	566
571.5	537
569.471	580.5
567.441	582.5
565.412	532.5
563.382	545.5
561.351	538.5
559.32	589.5
557.289	564
555.257	607.5
553.223	612.5
551.19	592
549.157	639.5
547.122	608
545.088	651.5
543.053	639
541.017	656
538.981	668
536.943	712
534.907	714
532.869	777.5
530.831	892
528.792	1047
526.752	1389.5
524.713	1754
522.673	2096.5
520.632	2087
518.591	1820.5
516.549	1464.5
514.507	1187.5
512.464	955
510.42	844
508.377	785
506.332	722
504.288	735
502.242	703
500.196	706.5
498.15	702
496.104	732
494.056	701.5
492.008	670.5
489.96	714
487.911	673
485.862	694
483.812	658
481.761	660
479.71	643
477.659	680
475.607	692
473.555	689
471.502	638
469.448	686.5
467.395	666.5
465.34	660
463.285	691
461.23	695.5
459.174	666
457.118	718
455.061	681
453.003	693.5
450.945	691
448.887	720.5
446.828	706
444.768	689
442.708	710
440.647	675
438.587	722
436.525	697
434.463	727.5
432.4	721
430.337	722
428.274	730
426.21	704.5
424.145	714.5
422.079	730.5
420.014	721
417.948	754.5
415.882	759.5
413.814	747
411.746	751.5
409.679	732.5
407.609	754.5
405.54	777.5
403.47	738
401.401	745
399.329	726
397.258	727
395.187	736
393.114	717
391.041	766
388.968	781
386.895	716
384.82	759
382.745	779
380.67	767.5
378.594	762
376.517	784.5
374.44	750
372.363	790
370.286	800
368.207	800
366.128	778
364.049	798.5
361.969	769
359.888	796
357.807	761.5
355.725	813
353.643	782.5
351.561	789.5
349.477	802.5
347.394	825
345.31	812
343.226	775
341.141	826
339.055	826.5
336.968	824.5
334.882	830.5
332.795	843.5
330.707	863
328.618	818.5
326.53	797
324.44	841.5
322.351	868.5
320.26	856.5
318.17	854
316.078	871
313.987	902
311.895	873
309.802	942.5
307.708	907
305.614	949
303.52	940
301.425	917
299.329	936
297.233	919
295.137	959
293.039	938
290.942	955
288.844	951
286.745	998.5
284.647	970
282.546	997
280.446	973.5
278.346	1016.5
276.245	996
274.143	963
272.041	974
269.939	1013.5
267.835	1027
265.731	1036
263.627	1052.5
261.522	1018
259.417	1032
257.311	1013
255.204	1081
253.098	1067.5
250.99	1087.5
248.882	1080.5
246.774	1071
244.664	1094
242.555	1102.5
240.445	1086
238.334	1095.5
236.223	1132.5
234.112	1152.5
232	1163
229.888	1171
227.775	1170
225.661	1202.5
223.546	1187.5
221.431	1232.5
219.316	1176
217.201	1227
215.084	1225
212.967	1209
210.85	1227.5
208.732	1271.5
206.614	1214.5
204.495	1281.5
202.375	1258
200.256	1217
198.135	1218
196.014	1233.5
193.893	1257.5
191.771	1237
189.648	1231
187.525	1246.5
185.401	1228
183.277	1248
181.152	1209
179.027	1230
176.901	1224
174.775	1277.5
172.648	1237
170.521	1287.5
168.393	1274.5
166.265	1305.5
164.136	1322
162.007	1346
159.876	1332.5
157.746	1341
155.615	1378
153.483	1421.5
151.351	1458.5
149.219	1448.5
147.086	1499
144.952	1536
142.818	1532
140.684	1604
138.548	1634
136.413	1712.5
134.276	1746.5
132.139	1803.5
130.002	1839
127.864	1883.5
125.725	1959.5
123.587	1936
121.447	2098.5
119.307	2131
117.166	2175
115.026	2296
112.885	2387.5
110.743	2478.5
108.6	2543
106.456	2582
104.313	2613.5
102.169	2549.5
100.023	2419
97.8789	2331.5
95.7328	2150
93.5869	1931.5
91.4392	1717
89.2919	1330.5
87.1447	1066
84.9959	848
