3528.51	32
3527.23	15
3525.95	60
3524.67	58
3523.39	37
3522.1	85.5
3520.82	67.5
3519.54	63
3518.26	79.5
3516.97	59
3515.69	38
3514.4	57
3513.12	59
3511.84	61
3510.55	93.5
3509.26	57.5
3507.98	49
3506.69	53
3505.41	85.5
3504.12	84
3502.83	45
3501.54	75.5
3500.26	72.5
3498.97	59.5
3497.68	78
3496.39	46
3495.1	68
3493.81	67.5
3492.52	37
3491.23	60
3489.94	73
3488.65	50
3487.36	68
3486.07	66
3484.78	71
3483.49	61.5
3482.19	88
3480.9	52.5
3479.61	69
3478.31	97.5
3477.02	68
3475.73	80
3474.43	65
3473.14	95
3471.84	76
3470.54	89.5
3469.25	72.5
3467.95	97
3466.66	88.5
3465.36	84
3464.06	90.5
3462.76	93
3461.46	89
3460.17	83
3458.87	74
3457.57	90
3456.27	75
3454.97	99
3453.67	105.5
3452.37	81.5
3451.07	83
3449.77	95
3448.47	112.5
3447.16	81
3445.86	97
3444.56	90
3443.26	85.5
3441.95	87.5
3440.65	110.5
3439.35	122
3438.04	103
3436.74	103
3435.43	99.5
3434.13	123.5
3432.82	120
3431.52	104
3430.21	107
3428.9	126
3427.6	122.5
3426.29	120.5
3424.98	127
3423.67	115.5
3422.36	144
3421.06	143
3419.75	122
3418.44	132
3417.13	152
3415.82	144
3414.51	127
3413.2	144.5
3411.88	154.5
3410.57	132
3409.26	135.5
3407.95	159.5
3406.64	136.5
3405.32	147.5
3404.01	147
3402.7	153.5
3401.38	157.5
3400.07	143.5
3398.75	169
3397.44	118
3396.12	148.5
3394.81	157
3393.49	143
3392.18	151
3390.86	140
3389.54	164
3388.23	161
3386.91	163.5
3385.59	167.5
3384.27	143
3382.95	155
3381.63	167
3380.31	180.5
3378.99	157
3377.67	173
3376.35	185
3375.03	167.5
3373.71	188
3372.39	180
3371.07	179.5
3369.75	182
3368.42	154.5
3367.1	188
3365.78	205.5
3364.45	195
3363.13	189
3361.81	172
3360.48	191
3359.16	175
3357.83	166
3356.51	185.5
3355.18	190.5
3353.85	198
3352.53	184.5
3351.2	217
3349.87	204
3348.54	166
3347.22	198.5
3345.89	214.5
3344.56	203
3343.23	187
3341.9	185
3340.57	226
3339.24	196.5
3337.91	182.5
3336.58	222.5
3335.25	214
3333.92	194
3332.58	199
3331.25	200
3329.92	205
3328.59	211
3327.25	188.5
3325.92	188
3324.58	221
3323.25	204
3321.92	227.5
3320.58	216
3319.25	215.5
3317.91	212
3316.57	212.5
3315.24	221
3313.9	204.5
3312.56	201.5
3311.23	183
3309.89	240.5
3308.55	189
3307.21	214.5
3305.87	231
3304.53	193.5
3303.19	230
3301.85	241
3300.51	231
3299.17	260.5
3297.83	241.5
3296.49	227
3295.15	242
3293.81	213.5
3292.46	228.5
3291.12	243
3289.78	238.5
3288.43	235
3287.09	233.5
3285.75	265.5
3284.4	222.5
3283.06	232
3281.71	214
3280.37	228
3279.02	232
3277.67	253.5
3276.33	262.5
3274.98	273
3273.63	236.5
3272.28	241.5
3270.94	268.5
3269.59	269
3268.24	231
3266.89	255.5
3265.54	254.5
3264.19	237
3262.84	278
3261.49	252
3260.14	281.5
3258.79	262.5
3257.44	272.5
3256.08	280
3254.73	306
3253.38	276.5
3252.03	300.5
3250.67	310.5
3249.32	339
3247.96	322.5
3246.61	330.5
3245.26	359
3243.9	329
3242.54	348
3241.19	355
3239.83	345
3238.48	343.5
3237.12	399
3235.76	382
3234.41	408
3233.05	415.5
3231.69	427.5
3230.33	423
3228.97	434.5
3227.61	421.5
3226.25	440
3224.89	466
3223.53	456
3222.17	473.5
3220.81	473
3219.45	521.5
3218.09	505
3216.72	519
3215.36	490
3214	525.5
3212.63	527.5
3211.27	544.5
3209.91	564
3208.54	530.5
3207.18	533.5
3205.81	549
3204.45	581.5
3203.08	550.5
3201.71	545.5
3200.35	609
3198.98	552
3197.61	575
3196.25	583
3194.88	576.5
3193.51	561.5
3192.14	615.5
3190.77	577
3189.4	599.5
3188.03	573.5
3186.66	574
3185.29	626.5
3183.92	609.5
3182.55	589.5
3181.18	567.5
3179.81	612.5
3178.44	599
3177.06	624
3175.69	617
3174.32	628
3172.94	622
3171.57	623.5
3170.2	652.5
3168.82	671.5
3167.45	637.5
3166.07	626
3164.69	647.5
3163.32	635.5
3161.94	650.5
3160.56	674.5
3159.19	656
3157.81	693
3156.43	707
3155.05	698
3153.67	692
3152.3	715.5
3150.92	709
3149.54	709
3148.16	729.5
3146.78	750.5
3145.4	719.5
3144.01	721
3142.63	748
3141.25	724.5
3139.87	735.5
3138.49	736.5
3137.1	752
3135.72	774.5
3134.34	761
3132.95	795
3131.57	802.5
3130.18	763
3128.8	743.5
3127.41	790.5
3126.03	818.5
3124.64	758
3123.25	805
3121.87	839.5
3120.48	835
3119.09	835
3117.7	823
3116.32	799.5
3114.93	816.5
3113.54	822.5
3112.15	810.5
3110.76	865
3109.37	839.5
3107.98	844.5
3106.59	834.5
3105.2	846
3103.8	834.5
3102.41	869
3101.02	882
3099.63	882
3098.23	887.5
3096.84	897
3095.45	889.5
3094.05	910.5
3092.66	868.5
3091.26	913
3089.87	885
3088.47	886
3087.08	872.5
3085.68	921.5
3084.28	881.5
3082.89	881.5
3081.49	911
3080.09	957.5
3078.69	870
3077.3	924
3075.9	913.5
3074.5	904.5
3073.1	941
3071.7	932.5
3070.3	954
3068.9	955.5
3067.5	941.5
3066.09	921
3064.69	956.5
3063.29	949
3061.89	982.5
3060.48	922.5
3059.08	925.5
3057.68	935.5
3056.27	977.5
3054.87	924.5
3053.46	954.5
3052.06	973
3050.65	958.5
3049.25	972
3047.84	958.5
3046.44	953
3045.03	1000
3043.62	999.5
3042.21	985
3040.81	1000
3039.4	963.5
3037.99	995.5
3036.58	993
3035.17	1021
3033.76	1017
3032.35	1028.5
3030.94	1018.5
3029.53	1036
3028.12	966.5
3026.71	995
3025.29	1008
3023.88	1002
3022.47	998
3021.06	1046.5
3019.64	1022
3018.23	1032.5
3016.82	1035.5
3015.4	1026
3013.99	1048
3012.57	1065
3011.15	1040
3009.74	1060
3008.32	1046
3006.91	1081.5
3005.49	1065
3004.07	1094.5
3002.65	1072.5
3001.24	1029.5
2999.82	1071.5
2998.4	1089
2996.98	1115
2995.56	1083.5
2994.14	1098
2992.72	1059.5
2991.3	1081
2989.88	1093.5
2988.46	1106
2987.03	1155.5
2985.61	1099
2984.19	1103.5
2982.77	1154.5
2981.34	1112.5
2979.92	1162.5
2978.49	1184
2977.07	1157
2975.65	1168.5
2974.22	1145
2972.79	1194.5
2971.37	1206
2969.94	1205.5
2968.52	1255
2967.09	1211.5
2965.66	1233.5
2964.23	1242
2962.81	1243
2961.38	1233.5
2959.95	1261.5
2958.52	1284.5
2957.09	1250.5
2955.66	1257.5
2954.23	1280.5
2952.8	1266.5
2951.37	1274
2949.94	1279.5
2948.5	1290
2947.07	1285.5
2945.64	1311.5
2944.21	1339
2942.77	1321
2941.34	1319.5
2939.91	1293.5
2938.47	1346.5
2937.04	1359.5
2935.6	1368.5
2934.17	1360
2932.73	1375
2931.29	1391.5
2929.86	1360
2928.42	1419.5
2926.98	1398.5
2925.55	1403
2924.11	1433
2922.67	1417
2921.23	1472
2919.79	1364.5
2918.35	1460
2916.91	1445.5
2915.47	1434.5
2914.03	1408
2912.59	1411
2911.15	1449.5
2909.71	1468
2908.26	1487.5
2906.82	1452.5
2905.38	1484
2903.94	1493
2902.49	1510.5
2901.05	1512.5
2899.6	1503
2898.16	1482
2896.71	1524.5
2895.27	1523
2893.82	1501
2892.38	1505.5
2890.93	1514.5
2889.48	1525
2888.03	1518.5
2886.59	1525
2885.14	1527.5
2883.69	1563
2882.24	1566
2880.79	1540.5
2879.34	1577
2877.89	1528
2876.44	1564.5
2874.99	1555
2873.54	1520
2872.09	1566.5
2870.64	1537
2869.18	1480.5
2867.73	1568
2866.28	1548.5
2864.83	1569
2863.37	1560
2861.92	1513
2860.46	1532
2859.01	1557.5
2857.55	1498
2856.1	1563
2854.64	1569.5
2853.19	1576.5
2851.73	1564.5
2850.27	1581
2848.81	1573
2847.36	1528
2845.9	1546
2844.44	1516
2842.98	1520
2841.52	1504
2840.06	1474
2838.6	1456
2837.14	1418.5
2835.68	1398.5
2834.22	1428.5
2832.76	1410.5
2831.3	1398
2829.83	1415.5
2828.37	1363
2826.91	1373.5
2825.44	1327
2823.98	1335
2822.52	1340
2821.05	1330.5
2819.59	1305.5
2818.12	1303.5
2816.66	1321.5
2815.19	1365.5
2813.72	1283
2812.26	1313
2810.79	1362
2809.32	1284
2807.85	1332
2806.38	1314
2804.92	1314.5
2803.45	1284.5
2801.98	1269.5
2800.51	1313
2799.04	1264.5
2797.57	1304
2796.1	1257.5
2794.62	1291.5
2793.15	1312.5
2791.68	1280
2790.21	1289.5
2788.73	1273.5
2787.26	1305.5
2785.79	1309.5
2784.31	1289
2782.84	1267
2781.36	1270.5
2779.89	1294.5
2778.41	1262.5
2776.94	1267
2775.46	1277
2773.99	1234
2772.51	1261.5
2771.03	1252.5
2769.55	1268.5
2768.07	1258.5
2766.6	1238
2765.12	1260.5
2763.64	1307.5
2762.16	1291
2760.68	1257.5
2759.2	1262.5
2757.72	1284
2756.24	1282
2754.75	1268.5
2753.27	1245
2751.79	1272.5
2750.31	1265.5
2748.82	1205
2747.34	1217.5
2745.86	1262.5
2744.37	1258.5
2742.89	1271.5
2741.4	1254.5
2739.92	1225.5
2738.43	1245.5
2736.94	1230.5
2735.46	1261
2733.97	1264.5
2732.48	1274
2731	1304
2729.51	1251
2728.02	1279
2726.53	1291
2725.04	1255
2723.55	1312.5
2722.06	1275
2720.57	1267
2719.08	1291.5
2717.59	1241
2716.1	1270
2714.61	1265
2713.11	1276
2711.62	1261.5
2710.13	1288
2708.64	1245
2707.14	1277
2705.65	1290
2704.15	1263
2702.66	1258.5
2701.16	1237
2699.67	1232.5
2698.17	1243
2696.67	1241.5
2695.18	1181
2693.68	1229
2692.18	1280
2690.69	1253.5
2689.19	1216
2687.69	1252
2686.19	1231
2684.69	1216
2683.19	1225
2681.69	1182.5
2680.19	1239
2678.69	1168.5
2677.19	1247
2675.68	1207
2674.18	1200.5
2672.68	1236
2671.18	1248
2669.67	1167.5
2668.17	1225
2666.66	1190.5
2665.16	1190.5
2663.66	1206.5
2662.15	1189.5
2660.64	1178
2659.14	1213.5
2657.63	1204.5
2656.13	1183
2654.62	1202
2653.11	1214.5
2651.6	1176
2650.09	1219
2648.58	1161.5
2647.08	1223
2645.57	1179.5
2644.06	1157.5
2642.55	1138
2641.04	1175
2639.52	1151
2638.01	1183
2636.5	1179
2634.99	1169
2633.48	1160.5
2631.96	1168
2630.45	1167.5
2628.94	1130
2627.42	1130.5
2625.91	1141
2624.39	1196
2622.88	1163
2621.36	1136.5
2619.85	1172
2618.33	1151
2616.81	1139
2615.3	1153
2613.78	1125
2612.26	1127.5
2610.74	1138
2609.22	1107
2607.7	1119.5
2606.18	1150.5
2604.66	1073
2603.14	1128
2601.62	1124
2600.1	1115.5
2598.58	1083
2597.06	1110.5
2595.54	1085.5
2594.01	1121.5
2592.49	1086.5
2590.97	1084
2589.44	1087.5
2587.92	1121.5
2586.39	1098
2584.87	1120
2583.34	1119.5
2581.82	1067
2580.29	1092
2578.76	1156.5
2577.24	1091
2575.71	1088
2574.18	1078
2572.65	1094.5
2571.13	1064
2569.6	1062.5
2568.07	1062.5
2566.54	1077.5
2565.01	1085
2563.48	1052.5
2561.95	999
2560.42	1105.5
2558.88	1082
2557.35	1027.5
2555.82	1053
2554.29	1060
2552.75	1068
2551.22	1059.5
2549.69	1034
2548.15	1023
2546.62	1024
2545.08	1016
2543.55	1020
2542.01	1026
2540.47	1030.5
2538.94	1031.5
2537.4	1016
2535.86	1024.5
2534.33	1044
2532.79	1009.5
2531.25	1001.5
2529.71	1019
2528.17	1021.5
2526.63	1028.5
2525.09	968.5
2523.55	981.5
2522.01	1029.5
2520.47	988
2518.92	972.5
2517.38	971.5
2515.84	998
2514.3	969
2512.75	979.5
2511.21	946
2509.67	931
2508.12	928
2506.58	977.5
2505.03	969.5
2503.49	934
2501.94	951
2500.39	945.5
2498.85	976.5
2497.3	951
2495.75	945
2494.2	951
2492.65	935
2491.11	948.5
2489.56	934
2488.01	942
2486.46	947.5
2484.91	903
2483.36	924
2481.8	922
2480.25	883.5
2478.7	945
2477.15	926
2475.6	896
2474.04	906.5
2472.49	880.5
2470.93	867.5
2469.38	894
2467.83	917.5
2466.27	894
2464.71	890.5
2463.16	838
2461.6	845.5
2460.05	860.5
2458.49	902
2456.93	880.5
2455.37	879
2453.81	859
2452.26	867
2450.7	879
2449.14	860
2447.58	869.5
2446.02	852.5
2444.46	859
2442.9	846
2441.33	826.5
2439.77	832.5
2438.21	812.5
2436.65	820.5
2435.08	813.5
2433.52	789
2431.96	833.5
2430.39	815.5
2428.83	814.5
2427.26	849.5
2425.7	827
2424.13	774
2422.56	813
2421	808.5
2419.43	795
2417.86	807.5
2416.3	838
2414.73	787
2413.16	780.5
2411.59	845.5
2410.02	791
2408.45	787.5
2406.88	777
2405.31	802.5
2403.74	754.5
2402.17	809
2400.6	841
2399.02	773.5
2397.45	812
2395.88	779
2394.3	777.5
2392.73	812
2391.16	753.5
2389.58	791.5
2388.01	808.5
2386.43	762.5
2384.86	779
2383.28	740.5
2381.7	763.5
2380.13	744
2378.55	758
2376.97	756.5
2375.39	806
2373.81	777
2372.23	801.5
2370.65	741.5
2369.07	732
2367.49	742
2365.91	719.5
2364.33	749.5
2362.75	721
2361.17	746
2359.59	721
2358.01	752
2356.42	707.5
2354.84	733
2353.25	776.5
2351.67	736
2350.09	736.5
2348.5	742
2346.92	719
2345.33	713
2343.74	737.5
2342.16	713
2340.57	734
2338.98	731
2337.39	715
2335.81	715.5
2334.22	735
2332.63	705.5
2331.04	748.5
2329.45	690
2327.86	725
2326.27	732.5
2324.68	724
2323.09	699
2321.49	718.5
2319.9	712
2318.31	693.5
2316.72	668.5
2315.12	712.5
2313.53	682.5
2311.93	693
2310.34	708.5
2308.74	701.5
2307.15	676
2305.55	693
2303.96	673.5
2302.36	676
2300.76	708.5
2299.17	686
2297.57	676.5
2295.97	665.5
2294.37	652
2292.77	672.5
2291.17	646.5
2289.57	637
2287.97	658
2286.37	628
2284.77	685
2283.17	665.5
2281.57	644
2279.96	610.5
2278.36	658
2276.76	644.5
2275.15	616
2273.55	640
2271.95	641
2270.34	661.5
2268.74	641
2267.13	642
2265.52	631.5
2263.92	629.5
2262.31	592.5
2260.7	616
2259.1	598
2257.49	576
2255.88	626
2254.27	619
2252.66	613.5
2251.05	640.5
2249.44	613
2247.83	588.5
2246.22	612
2244.61	595.5
2243	638.5
2241.39	574.5
2239.77	616.5
2238.16	618
2236.55	618.5
2234.93	615.5
2233.32	591
2231.7	601
2230.09	582
2228.47	563.5
2226.86	608.5
2225.24	596.5
2223.63	595.5
2222.01	582.5
2220.39	548
2218.77	561
2217.16	550
2215.54	586
2213.92	564
2212.3	563
2210.68	562.5
2209.06	573.5
2207.44	570
2205.82	556.5
2204.19	588
2202.57	580.5
2200.95	587
2199.33	571
2197.7	567
2196.08	548.5
2194.46	537.5
2192.83	530.5
2191.21	522.5
2189.58	548.5
2187.96	543
2186.33	556
2184.7	570.5
2183.08	506.5
2181.45	558
2179.82	539.5
2178.19	535
2176.57	528.5
2174.94	514
2173.31	548.5
2171.68	513
2170.05	519
2168.42	538.5
2166.79	538.5
2165.16	506.5
2163.52	533
2161.89	497.5
2160.26	524.5
2158.63	490.5
2156.99	503.5
2155.36	517
2153.73	512
2152.09	484.5
2150.46	522.5
2148.82	506
2147.18	490.5
2145.55	508
2143.91	491
2142.27	516.5
2140.64	499.5
2139	500.5
2137.36	506.5
2135.72	460.5
2134.08	501
2132.44	502
2130.8	483.5
2129.16	480
2127.52	494.5
2125.88	483
2124.24	440
2122.6	488.5
2120.95	476
2119.31	458.5
2117.67	459.5
2116.02	462
2114.38	480.5
2112.74	450
2111.09	457
2109.45	505.5
2107.8	433
2106.15	454
2104.51	445
2102.86	439.5
2101.21	474
2099.56	467
2097.92	441.5
2096.27	472.5
2094.62	442
2092.97	437.5
2091.32	430.5
2089.67	428.5
2088.02	408.5
2086.37	455
2084.72	467
2083.06	432.5
2081.41	451
2079.76	426
2078.1	444
2076.45	450.5
2074.8	411
2073.14	441
2071.49	435
2069.83	433
2068.18	442
2066.52	448
2064.86	452
2063.21	430.5
2061.55	412
2059.89	430.5
2058.23	415
2056.57	409
2054.92	420
2053.26	410.5
2051.6	437
2049.94	424.5
2048.27	387.5
2046.61	400
2044.95	406
2043.29	417
2041.63	444.5
2039.97	421.5
2038.3	399
2036.64	395
2034.97	424.5
2033.31	373
2031.64	381
2029.98	412.5
2028.31	377
2026.65	373.5
2024.98	412.5
2023.31	410.5
2021.65	396.5
2019.98	411
2018.31	384.5
2016.64	372.5
2014.97	392
2013.3	392.5
2011.63	391
2009.96	367
2008.29	383.5
2006.62	401.5
2004.95	392.5
2003.28	366.5
2001.6	378
1999.93	383.5
1998.26	368
1996.58	363
1994.91	380
1993.24	384
1991.56	361
1989.89	369.5
1988.21	361
1986.53	349
1984.86	347
1983.18	374.5
1981.5	364
1979.82	363
1978.15	385
1976.47	388
1974.79	397.5
1973.11	356
1971.43	339
1969.75	380
1968.07	341.5
1966.38	362
1964.7	351.5
1963.02	349
1961.34	368.5
1959.66	345
1957.97	358.5
1956.29	342
1954.6	368
1952.92	336.5
1951.23	339
1949.55	337
1947.86	356.5
1946.18	364.5
1944.49	364.5
1942.8	336
1941.11	355.5
1939.43	328
1937.74	327.5
1936.05	346.5
1934.36	353
1932.67	331
1930.98	345
1929.29	308
1927.6	350
1925.91	321
1924.21	326.5
1922.52	334.5
1920.83	337.5
1919.14	317
1917.44	305
1915.75	323
1914.05	358
1912.36	347.5
1910.66	306
1908.97	352.5
1907.27	327
1905.58	311.5
1903.88	328
1902.18	296.5
1900.48	292.5
1898.79	314.5
1897.09	314
1895.39	308.5
1893.69	294.5
1891.99	323
1890.29	308
1888.59	292
1886.89	306.5
1885.18	299.5
1883.48	284
1881.78	296
1880.08	312.5
1878.37	315.5
1876.67	285.5
1874.96	290
1873.26	279
1871.55	279.5
1869.85	283
1868.14	293.5
1866.44	271
1864.73	271
1863.02	330
1861.32	293.5
1859.61	279.5
1857.9	311
1856.19	275
1854.48	281
1852.77	274.5
1851.06	279.5
1849.35	277.5
1847.64	283
1845.93	286
1844.21	244
1842.5	272
1840.79	268.5
1839.08	291.5
1837.36	295
1835.65	263.5
1833.93	251
1832.22	272
1830.5	289.5
1828.79	266
1827.07	272
1825.36	286.5
1823.64	277
1821.92	266
1820.2	264.5
1818.48	269.5
1816.77	274
1815.05	280.5
1813.33	243.5
1811.61	269.5
1809.89	256
1808.16	261
1806.44	251
1804.72	253
1803	263
1801.28	267
1799.55	219
1797.83	257
1796.11	235.5
1794.38	247
1792.66	237
1790.93	273
1789.21	230
1787.48	240
1785.75	250
1784.03	277
1782.3	221.5
1780.57	256.5
1778.84	263.5
1777.11	267
1775.38	266.5
1773.66	232
1771.93	255.5
1770.19	264
1768.46	262.5
1766.73	248.5
1765	256
1763.27	270.5
1761.54	258.5
1759.8	280
1758.07	276.5
1756.34	254
1754.6	276
1752.87	291.5
1751.13	308
1749.4	296
1747.66	331
1745.92	299
1744.19	315
1742.45	256
1740.71	319.5
1738.97	279
1737.23	314
1735.49	276
1733.75	254
1732.01	290
1730.27	251
1728.53	283
1726.79	253.5
1725.05	284.5
1723.31	246.5
1721.57	238.5
1719.82	251.5
1718.08	254
1716.34	275.5
1714.59	244.5
1712.85	226
1711.1	232.5
1709.36	236.5
1707.61	242
1705.86	248
1704.12	239
1702.37	241
1700.62	218.5
1698.87	245
1697.12	229
1695.37	240.5
1693.62	225
1691.87	214
1690.12	239.5
1688.37	233
1686.62	240
1684.87	271.5
1683.12	244
1681.36	251
1679.61	252.5
1677.86	258
1676.1	218
1674.35	252
1672.59	268.5
1670.84	278.5
1669.08	288
1667.33	329.5
1665.57	294
1663.81	379.5
1662.06	399
1660.3	379.5
1658.54	391.5
1656.78	422.5
1655.02	426
1653.26	437
1651.5	368
1649.74	355
1647.98	324
1646.22	282
1644.46	296
1642.7	263
1640.93	240
1639.17	245.5
1637.41	241.5
1635.64	270
1633.88	242.5
1632.11	232
1630.35	212.5
1628.58	258
1626.81	212
1625.05	222.5
1623.28	236
1621.51	233.5
1619.75	215
1617.98	221.5
1616.21	216
1614.44	210
1612.67	197.5
1610.9	217
1609.13	209
1607.36	232
1605.58	248
1603.81	229
1602.04	203
1600.27	221
1598.49	218
1596.72	221
1594.95	247
1593.17	218.5
1591.4	232.5
1589.62	207.5
1587.84	227.5
1586.07	220
1584.29	225.5
1582.51	210
1580.74	198
1578.96	233
1577.18	234
1575.4	248.5
1573.62	225
1571.84	211
1570.06	224.5
1568.28	224.5
1566.5	236
1564.72	222
1562.93	236
1561.15	236
1559.37	230.5
1557.58	243
1555.8	229
1554.02	218
1552.23	240
1550.45	234.5
1548.66	213
1546.87	231.5
1545.09	215
1543.3	218
1541.51	213.5
1539.72	216
1537.94	224
1536.15	231
1534.36	225
1532.57	221
1530.78	209
1528.99	205
1527.2	235
1525.4	217
1523.61	231
1521.82	207
1520.03	212.5
1518.23	216
1516.44	243
1514.65	215.5
1512.85	222.5
1511.06	224.5
1509.26	213.5
1507.46	241
1505.67	268.5
1503.87	206
1502.07	259
1500.28	249
1498.48	252
1496.68	260.5
1494.88	251.5
1493.08	243
1491.28	275
1489.48	292
1487.68	284
1485.88	280.5
1484.08	324.5
1482.27	288
1480.47	351
1478.67	322
1476.86	378
1475.06	422
1473.25	399.5
1471.45	458.5
1469.64	483
1467.84	526.5
1466.03	535
1464.23	596
1462.42	588.5
1460.61	641
1458.8	649.5
1456.99	679
1455.18	692
1453.37	733
1451.56	751.5
1449.75	756
1447.94	830.5
1446.13	789.5
1444.32	861
1442.51	889
1440.7	892.5
1438.88	848
1437.07	789
1435.26	729
1433.44	648
1431.63	570.5
1429.81	492.5
1427.99	476
1426.18	417.5
1424.36	387
1422.54	391
1420.73	414
1418.91	386
1417.09	367.5
1415.27	294
1413.45	345.5
1411.63	324
1409.81	297
1407.99	288
1406.17	299
1404.35	294.5
1402.53	249
1400.7	240
1398.88	268
1397.06	249.5
1395.23	248.5
1393.41	255
1391.58	269
1389.76	258.5
1387.93	243
1386.11	263
1384.28	252
1382.45	261
1380.62	254.5
1378.8	261
1376.97	283
1375.14	264
1373.31	272
1371.48	310
1369.65	287
1367.82	283.5
1365.99	281
1364.16	269
1362.32	283
1360.49	290
1358.66	284
1356.82	272
1354.99	302
1353.16	285.5
1351.32	270
1349.48	318.5
1347.65	297
1345.81	295.5
1343.98	277
1342.14	256
1340.3	274
1338.46	294.5
1336.62	239.5
1334.79	294.5
1332.95	276
1331.11	289
1329.27	323
1327.42	322
1325.58	355
1323.74	385
1321.9	383
1320.06	403
1318.21	407
1316.37	453
1314.53	469.5
1312.68	469
1310.84	531
1308.99	572.5
1307.15	623
1305.3	658.5
1303.45	673.5
1301.61	731
1299.76	751.5
1297.91	761.5
1296.06	693
1294.21	629
1292.36	557.5
1290.51	461
1288.66	470.5
1286.81	449
1284.96	409
1283.11	436
1281.26	416
1279.4	430
1277.55	424.5
1275.7	434.5
1273.84	427.5
1271.99	443
1270.13	465
1268.28	424
1266.42	420
1264.56	438
1262.71	437
1260.85	418
1258.99	416.5
1257.13	373
1255.27	383
1253.41	365
1251.56	350
1249.7	348
1247.83	315
1245.97	341.5
1244.11	301
1242.25	310
1240.39	289
1238.52	292
1236.66	294
1234.8	281
1232.93	298.5
1231.07	286.5
1229.2	274
1227.34	277
1225.47	273
1223.6	241
1221.74	246
1219.87	267
1218	276
1216.13	254.5
1214.26	257
1212.39	246
1210.53	268
1208.65	254
1206.78	246
1204.91	287
1203.04	243
1201.17	249
1199.3	269
1197.42	263
1195.55	283
1193.68	219
1191.8	256.5
1189.93	241
1188.05	231.5
1186.17	249
1184.3	261.5
1182.42	287.5
1180.54	258
1178.67	279
1176.79	305.5
1174.91	267.5
1173.03	269
1171.15	287
1169.27	268
1167.39	226
1165.51	239
1163.63	265.5
1161.75	276
1159.86	272
1157.98	271
1156.1	256
1154.21	257.5
1152.33	285
1150.44	276
1148.56	288.5
1146.67	265
1144.79	259
1142.9	293
1141.01	285.5
1139.12	336
1137.24	326.5
1135.35	316
1133.46	418
1131.57	467
1129.68	446
1127.79	469
1125.9	455
1124.01	388
1122.12	374
1120.22	390
1118.33	374.5
1116.44	373
1114.54	355.5
1112.65	383
1110.75	372
1108.86	396
1106.96	390.5
1105.07	361.5
1103.17	407.5
1101.27	410.5
1099.38	436.5
1097.48	454.5
1095.58	480.5
1093.68	477.5
1091.78	500
1089.88	482
1087.98	468.5
1086.08	490
1084.18	526
1082.28	496
1080.38	519
1078.47	537
1076.57	523.5
1074.67	493.5
1072.76	521.5
1070.86	559
1068.95	564
1067.05	561.5
1065.14	607
1063.24	622.5
1061.33	543
1059.42	519
1057.51	494
1055.6	428
1053.7	422.5
1051.79	402.5
1049.88	401
1047.97	388
1046.06	384
1044.14	361
1042.23	352
1040.32	374.5
1038.41	379
1036.5	377
1034.58	371
1032.67	352
1030.75	361
1028.84	377
1026.92	397
1025.01	362
1023.09	358
1021.17	369.5
1019.26	377
1017.34	376
1015.42	361.5
1013.5	358
1011.58	342
1009.66	337
1007.74	340
1005.82	289
1003.9	308
1001.98	356.5
1000.06	324.5
998.134	337.5
996.212	360
994.288	343.5
992.364	331
990.44	338
988.515	312
986.589	370.5
984.663	353.5
982.737	373.5
980.81	359
978.883	376
976.955	411
975.027	409
973.098	436.5
971.169	400
969.239	412
967.308	429.5
965.378	419
963.447	422.5
961.516	410.5
959.583	416
957.65	386
955.718	410
953.784	373
951.85	427
949.916	425
947.981	440.5
946.045	444
944.109	448
942.173	434
940.236	424
938.298	426
936.36	443
934.422	389
932.484	405
930.544	422
928.604	369
926.664	377.5
924.724	436.5
922.782	403
920.84	397
918.898	419.5
916.955	411.5
915.012	405
913.068	404
911.124	369.5
909.18	421.5
907.235	416.5
905.289	416
903.343	393
901.397	394
899.45	425
897.502	422
895.554	488.5
893.605	494.5
891.657	478
889.707	529
887.758	501
885.807	487
883.856	475
881.905	481
879.953	457.5
878.001	431
876.048	476
874.094	475
872.14	472
870.186	499
868.232	502.5
866.276	466
864.321	504.5
862.365	479.5
860.408	452
858.451	449
856.493	493
854.535	460.5
852.576	448.5
850.617	454
848.658	478
846.698	472
844.737	472
842.776	463
840.814	431
838.852	447.5
836.89	406
834.927	415.5
832.963	426
830.999	393.5
829.035	395
827.07	345
825.105	362.5
823.139	375.5
821.172	401.5
819.206	358.5
817.238	355.5
815.27	373
813.301	367.5
811.333	299
809.363	372
807.394	349
805.424	334.5
803.453	326
801.482	313.5
799.509	317.5
797.538	308.5
795.565	319
793.592	317.5
791.618	300.5
789.643	295
787.669	275.5
785.693	311.5
783.718	304
781.742	309
779.765	314
777.788	295.5
775.811	296.5
773.832	288
771.853	278
769.875	308.5
767.895	277
765.915	305
763.934	292
761.953	301.5
759.972	309
757.99	268.5
756.007	300.5
754.024	267
752.041	315
750.056	297
748.072	297
746.087	302
744.102	287.5
742.116	290
740.13	287
738.143	323
736.155	333.5
734.167	303.5
732.179	326.5
730.19	333
728.2	295
726.21	304
724.22	295
722.229	281.5
720.237	283.5
718.246	308
716.253	278
714.26	300.5
712.267	300.5
710.273	308
708.279	302
706.284	297
704.289	301.5
702.293	312.5
700.296	316
698.3	281.5
696.303	295
694.305	285.5
692.307	284.5
690.307	272
688.308	275
686.309	266.5
684.308	306.5
682.308	263
680.306	260
678.304	288.5
676.302	262.5
674.3	307
672.296	301.5
670.293	298
668.289	292
666.284	311
664.278	273.5
662.273	285
660.266	301
658.26	336
656.252	268
654.244	299
652.237	316.5
650.227	305.5
648.218	314
646.209	296.5
644.198	298.5
642.188	321
640.177	316
638.165	341
636.153	334
634.14	334
632.128	326.5
630.113	325
628.099	329
626.085	315.5
624.07	348
622.054	328
620.038	356.5
618.021	337
616.004	351
613.986	326
611.968	346
609.949	342
607.93	359
605.911	348
603.891	365.5
601.87	345
599.848	321
597.827	329
595.805	348.5
593.782	359.5
591.759	346
589.735	380
587.711	341.5
585.687	332
583.661	358.5
581.636	355
579.609	328
577.583	350
575.555	317
573.527	348.5
571.5	344
569.471	316.5
567.441	331
565.412	325
563.382	369
561.351	319.5
559.32	348.5
557.289	350
555.257	354
553.223	365.5
551.19	368.5
549.157	362.5
547.122	386
545.088	402
543.053	383
541.017	418
538.981	423
536.943	432
534.907	531
532.869	581
530.831	714
528.792	962
526.752	1378
524.713	1885
522.673	2348
520.632	2371.5
518.591	2002.5
516.549	1500.5
514.507	1111.5
512.464	858
510.42	648
508.377	527
506.332	503.5
504.288	470.5
502.242	476
500.196	421
498.15	414.5
496.104	431
494.056	423
492.008	416.5
489.96	409
487.911	420.5
485.862	378
483.812	409
481.761	397
479.71	395.5
477.659	440
475.607	422.5
473.555	410
471.502	414
469.448	382.5
467.395	411.5
465.34	400
463.285	403
461.23	399.5
459.174	430
457.118	397.5
455.061	431.5
453.003	420
450.945	430
448.887	407.5
446.828	416
444.768	426
442.708	429
440.647	440
438.587	429.5
436.525	455.5
434.463	439
432.4	430.5
430.337	449.5
428.274	439.5
426.21	431
424.145	458
422.079	429.5
420.014	447
417.948	441
415.882	432
413.814	457
411.746	431.5
409.679	500
407.609	429
405.54	455.5
403.47	421
401.401	474
399.329	436
397.258	446.5
395.187	442
393.114	427.5
391.041	452
388.968	444
386.895	455
384.82	483
382.745	468.5
380.67	447.5
378.594	465.5
376.517	475
374.44	472
372.363	510.5
370.286	454
368.207	452
366.128	493
364.049	520
361.969	454
359.888	519
357.807	524
355.725	482
353.643	483.5
351.561	478.5
349.477	495
347.394	457.5
345.31	472
343.226	517
341.141	504.5
339.055	498.5
336.968	477.5
334.882	501
332.795	533.5
330.707	514.5
328.618	504
326.53	496
324.44	517.5
322.351	534
320.26	523
318.17	525
316.078	506
313.987	546
311.895	536
309.802	565
307.708	565
305.614	600.5
303.52	625.5
301.425	588
299.329	548
297.233	595
295.137	595
293.039	590.5
290.942	542
288.844	588
286.745	563
284.647	594
282.546	612.5
280.446	598.5
278.346	645
276.245	571.5
274.143	585
272.041	620.5
269.939	619
267.835	595
265.731	606
263.627	622
261.522	586.5
259.417	612.5
257.311	599
255.204	653.5
253.098	581
250.99	648
248.882	636
246.774	660
244.664	631
242.555	705
240.445	675.5
238.334	639
236.223	675
234.112	675.5
232	723
229.888	695.5
227.775	708
225.661	703
223.546	723.5
221.431	690
219.316	711
217.201	709
215.084	745
212.967	744
210.85	732
208.732	777
206.614	756
204.495	723
202.375	708
200.256	751
198.135	729
196.014	696
193.893	748
191.771	754
189.648	765.5
187.525	733
185.401	754.5
183.277	728
181.152	745
179.027	783.5
176.901	737
174.775	774
172.648	788
170.521	780.5
168.393	762
166.265	788
164.136	810
162.007	847
159.876	881.5
157.746	838
155.615	923.5
153.483	946.5
151.351	898
149.219	936
147.086	973.5
144.952	1033.5
142.818	1032
140.684	1062
138.548	1123
136.413	1127.5
134.276	1145.5
132.139	1192
130.002	1267
127.864	1281.5
125.725	1305
123.587	1335
121.447	1430
119.307	1480
117.166	1503
115.026	1577
112.885	1593
110.743	1703
108.6	1724.5
106.456	1736
104.313	1768
102.169	1758
100.023	1732
97.8789	1619
95.7328	1446
93.5869	1325
91.4392	1155
89.2919	916
87.1447	757
84.9959	556
