3528.51	23
3527.23	3.5
3525.95	54
3524.67	44
3523.39	30
3522.1	55
3520.82	47
3519.54	48.5
3518.26	62
3516.97	48
3515.69	20.5
3514.4	45
3513.12	39.5
3511.84	43
3510.55	77
3509.26	47.5
3507.98	21
3506.69	34.5
3505.41	60.5
3504.12	80.5
3502.83	27
3501.54	47
3500.26	54
3498.97	39
3497.68	40.5
3496.39	35
3495.1	44.5
3493.81	31.5
3492.52	-1
3491.23	36
3489.94	73
3488.65	45
3487.36	61
3486.07	45.5
3484.78	30
3483.49	47
3482.19	74.5
3480.9	44
3479.61	24
3478.31	64.5
3477.02	52
3475.73	56
3474.43	51
3473.14	52
3471.84	56
3470.54	60
3469.25	55
3467.95	67
3466.66	63
3465.36	58
3464.06	48
3462.76	72
3461.46	50.5
3460.17	62.5
3458.87	45.5
3457.57	66.5
3456.27	62
3454.97	70
3453.67	72.5
3452.37	64.5
3451.07	47.5
3449.77	67.5
3448.47	69.5
3447.16	52.5
3445.86	58.5
3444.56	55
3443.26	73.5
3441.95	64
3440.65	85
3439.35	82
3438.04	80.5
3436.74	68.5
3435.43	62
3434.13	108.5
3432.82	80
3431.52	69
3430.21	74.5
3428.9	91.5
3427.6	79
3426.29	84
3424.98	80
3423.67	90
3422.36	86
3421.06	84
3419.75	78
3418.44	99
3417.13	120.5
3415.82	92
3414.51	84
3413.2	93.5
3411.88	104
3410.57	84.5
3409.26	101.5
3407.95	108
3406.64	83
3405.32	108
3404.01	102
3402.7	123.5
3401.38	106
3400.07	112.5
3398.75	128.5
3397.44	85
3396.12	104.5
3394.81	109.5
3393.49	86.5
3392.18	117.5
3390.86	84
3389.54	111.5
3388.23	116
3386.91	110
3385.59	118
3384.27	103.5
3382.95	123
3381.63	121.5
3380.31	119
3378.99	135
3377.67	131.5
3376.35	144
3375.03	126
3373.71	109
3372.39	130
3371.07	134.5
3369.75	111
3368.42	103.5
3367.1	124
3365.78	142
3364.45	150.5
3363.13	159
3361.81	136.5
3360.48	131
3359.16	135.5
3357.83	138
3356.51	134
3355.18	137
3353.85	125
3352.53	118
3351.2	172
3349.87	158
3348.54	116
3347.22	153
3345.89	173
3344.56	147
3343.23	130
3341.9	132.5
3340.57	151.5
3339.24	142.5
3337.91	135.5
3336.58	158
3335.25	153
3333.92	159
3332.58	138
3331.25	169.5
3329.92	148.5
3328.59	157.5
3327.25	131
3325.92	155
3324.58	175
3323.25	153.5
3321.92	154
3320.58	165
3319.25	148.5
3317.91	191
3316.57	153
3315.24	161
3313.9	160.5
3312.56	123
3311.23	153
3309.89	173
3308.55	140.5
3307.21	150
3305.87	172.5
3304.53	144.5
3303.19	155
3301.85	183
3300.51	180
3299.17	174.5
3297.83	175.5
3296.49	183
3295.15	160
3293.81	160
3292.46	175
3291.12	199
3289.78	192
3288.43	175
3287.09	144
3285.75	194.5
3284.4	172.5
3283.06	182.5
3281.71	177.5
3280.37	154
3279.02	191
3277.67	167
3276.33	185
3274.98	183
3273.63	180.5
3272.28	155
3270.94	207.5
3269.59	198
3268.24	183.5
3266.89	190.5
3265.54	195.5
3264.19	183.5
3262.84	192
3261.49	181
3260.14	204
3258.79	191
3257.44	202.5
3256.08	208.5
3254.73	197
3253.38	190.5
3252.03	203.5
3250.67	208.5
3249.32	252
3247.96	221
3246.61	218
3245.26	234
3243.9	226
3242.54	255.5
3241.19	244.5
3239.83	264
3238.48	257.5
3237.12	301.5
3235.76	276
3234.41	305
3233.05	287.5
3231.69	327.5
3230.33	291
3228.97	282
3227.61	327.5
3226.25	319
3224.89	343
3223.53	316
3222.17	329.5
3220.81	345
3219.45	390.5
3218.09	353
3216.72	352
3215.36	361
3214	425.5
3212.63	382
3211.27	388
3209.91	404
3208.54	385
3207.18	390.5
3205.81	397
3204.45	393.5
3203.08	385
3201.71	401
3200.35	426.5
3198.98	396
3197.61	420
3196.25	440.5
3194.88	446.5
3193.51	421.5
3192.14	438.5
3190.77	383.5
3189.4	426.5
3188.03	417.5
3186.66	425.5
3185.29	448
3183.92	460
3182.55	434
3181.18	446
3179.81	454
3178.44	465
3177.06	451
3175.69	461.5
3174.32	469.5
3172.94	474.5
3171.57	439
3170.2	476
3168.82	439
3167.45	455
3166.07	456
3164.69	487
3163.32	478.5
3161.94	478
3160.56	502
3159.19	489
3157.81	477
3156.43	537.5
3155.05	526.5
3153.67	465
3152.3	508.5
3150.92	540
3149.54	508
3148.16	529
3146.78	537
3145.4	533
3144.01	548.5
3142.63	558.5
3141.25	547
3139.87	559
3138.49	545.5
3137.1	564.5
3135.72	574.5
3134.34	568
3132.95	549
3131.57	606
3130.18	565
3128.8	573.5
3127.41	581
3126.03	578
3124.64	589
3123.25	610
3121.87	554.5
3120.48	589.5
3119.09	631
3117.7	618
3116.32	593
3114.93	624.5
3113.54	614.5
3112.15	603.5
3110.76	625
3109.37	649
3107.98	626
3106.59	636.5
3105.2	647.5
3103.8	654.5
3102.41	626
3101.02	615.5
3099.63	643.5
3098.23	654.5
3096.84	627
3095.45	637
3094.05	646
3092.66	647
3091.26	660.5
3089.87	656
3088.47	609.5
3087.08	643.5
3085.68	649
3084.28	652.5
3082.89	689.5
3081.49	711
3080.09	680
3078.69	668.5
3077.3	674.5
3075.9	680.5
3074.5	663.5
3073.1	678
3071.7	663.5
3070.3	710.5
3068.9	695
3067.5	700
3066.09	681
3064.69	718
3063.29	717
3061.89	713
3060.48	734
3059.08	688
3057.68	723
3056.27	726
3054.87	711.5
3053.46	741
3052.06	688
3050.65	722
3049.25	687
3047.84	729
3046.44	735
3045.03	746
3043.62	718
3042.21	721
3040.81	699
3039.4	723.5
3037.99	717
3036.58	764.5
3035.17	756.5
3033.76	745
3032.35	759.5
3030.94	764
3029.53	782
3028.12	755.5
3026.71	753
3025.29	766
3023.88	743
3022.47	780
3021.06	760
3019.64	771.5
3018.23	770
3016.82	754
3015.4	785
3013.99	794.5
3012.57	814
3011.15	780
3009.74	788.5
3008.32	807
3006.91	797.5
3005.49	835.5
3004.07	772.5
3002.65	716
3001.24	787.5
2999.82	781.5
2998.4	797
2996.98	820
2995.56	796.5
2994.14	820
2992.72	813.5
2991.3	811
2989.88	818
2988.46	818
2987.03	844
2985.61	855
2984.19	843.5
2982.77	855
2981.34	820
2979.92	869
2978.49	878
2977.07	848
2975.65	848.5
2974.22	881
2972.79	912.5
2971.37	894
2969.94	912
2968.52	908
2967.09	948
2965.66	940.5
2964.23	932
2962.81	943
2961.38	940.5
2959.95	971
2958.52	969.5
2957.09	935.5
2955.66	967
2954.23	945
2952.8	953.5
2951.37	983.5
2949.94	987
2948.5	993
2947.07	991
2945.64	988
2944.21	1053.5
2942.77	993
2941.34	1041
2939.91	1024.5
2938.47	1049
2937.04	1047
2935.6	1036.5
2934.17	1086.5
2932.73	1052.5
2931.29	1117.5
2929.86	1029
2928.42	1076
2926.98	1075
2925.55	1072
2924.11	1132
2922.67	1125
2921.23	1110
2919.79	1073
2918.35	1112
2916.91	1097
2915.47	1122
2914.03	1155
2912.59	1130
2911.15	1167.5
2909.71	1119.5
2908.26	1193.5
2906.82	1146
2905.38	1160
2903.94	1145
2902.49	1187.5
2901.05	1191
2899.6	1177
2898.16	1211.5
2896.71	1161
2895.27	1178.5
2893.82	1187
2892.38	1180.5
2890.93	1198
2889.48	1216.5
2888.03	1191.5
2886.59	1205
2885.14	1241
2883.69	1239
2882.24	1201
2880.79	1191
2879.34	1199.5
2877.89	1230.5
2876.44	1197
2874.99	1213
2873.54	1192.5
2872.09	1200
2870.64	1194.5
2869.18	1208.5
2867.73	1213
2866.28	1207
2864.83	1186
2863.37	1238.5
2861.92	1181.5
2860.46	1193.5
2859.01	1213
2857.55	1199
2856.1	1223
2854.64	1215
2853.19	1249
2851.73	1210
2850.27	1244
2848.81	1210
2847.36	1190
2845.9	1216.5
2844.44	1196
2842.98	1154
2841.52	1147
2840.06	1157
2838.6	1118.5
2837.14	1124.5
2835.68	1104
2834.22	1077.5
2832.76	1095
2831.3	1072
2829.83	1052.5
2828.37	1061.5
2826.91	1037
2825.44	1058
2823.98	984
2822.52	1050.5
2821.05	1026
2819.59	983
2818.12	985
2816.66	971
2815.19	994
2813.72	964.5
2812.26	984
2810.79	988
2809.32	968.5
2807.85	1007
2806.38	972
2804.92	978.5
2803.45	954
2801.98	941.5
2800.51	928
2799.04	984.5
2797.57	965
2796.1	941.5
2794.62	929.5
2793.15	937
2791.68	945
2790.21	943.5
2788.73	916.5
2787.26	960.5
2785.79	961
2784.31	961
2782.84	913
2781.36	917
2779.89	963
2778.41	946
2776.94	911
2775.46	939.5
2773.99	909
2772.51	963
2771.03	930
2769.55	965
2768.07	930
2766.6	937.5
2765.12	942.5
2763.64	968
2762.16	929
2760.68	940
2759.2	936.5
2757.72	941
2756.24	930.5
2754.75	984
2753.27	942
2751.79	930.5
2750.31	974.5
2748.82	916
2747.34	912
2745.86	941
2744.37	954.5
2742.89	928
2741.4	919
2739.92	889
2738.43	925
2736.94	945.5
2735.46	912
2733.97	945.5
2732.48	963.5
2731	958
2729.51	944.5
2728.02	928.5
2726.53	952
2725.04	931
2723.55	973
2722.06	940
2720.57	956
2719.08	918
2717.59	910
2716.1	924
2714.61	952.5
2713.11	950.5
2711.62	943
2710.13	900
2708.64	948
2707.14	934.5
2705.65	937
2704.15	921
2702.66	876
2701.16	915.5
2699.67	915.5
2698.17	891
2696.67	923
2695.18	904.5
2693.68	914.5
2692.18	921.5
2690.69	921
2689.19	934.5
2687.69	911
2686.19	892.5
2684.69	883
2683.19	918.5
2681.69	943
2680.19	925.5
2678.69	907
2677.19	934
2675.68	897.5
2674.18	894.5
2672.68	913.5
2671.18	903.5
2669.67	880.5
2668.17	915.5
2666.66	892.5
2665.16	906
2663.66	880.5
2662.15	883
2660.64	845.5
2659.14	901
2657.63	855
2656.13	861
2654.62	879
2653.11	894.5
2651.6	878.5
2650.09	891
2648.58	898
2647.08	869
2645.57	887.5
2644.06	880.5
2642.55	828
2641.04	869.5
2639.52	881.5
2638.01	857
2636.5	882.5
2634.99	866.5
2633.48	868.5
2631.96	838
2630.45	854
2628.94	828
2627.42	832.5
2625.91	855
2624.39	869.5
2622.88	819.5
2621.36	840
2619.85	817
2618.33	836.5
2616.81	847.5
2615.3	841.5
2613.78	809
2612.26	851
2610.74	812
2609.22	821.5
2607.7	846
2606.18	830.5
2604.66	831.5
2603.14	839
2601.62	808
2600.1	806.5
2598.58	812
2597.06	809.5
2595.54	798.5
2594.01	841
2592.49	801.5
2590.97	809.5
2589.44	805
2587.92	817
2586.39	827.5
2584.87	816
2583.34	812.5
2581.82	773.5
2580.29	791.5
2578.76	841
2577.24	777.5
2575.71	784.5
2574.18	793
2572.65	801
2571.13	795.5
2569.6	803
2568.07	769.5
2566.54	813
2565.01	785
2563.48	790.5
2561.95	767
2560.42	789
2558.88	808.5
2557.35	779
2555.82	768
2554.29	800
2552.75	777
2551.22	766
2549.69	785.5
2548.15	782
2546.62	760.5
2545.08	756.5
2543.55	782
2542.01	770.5
2540.47	771.5
2538.94	732
2537.4	765
2535.86	734.5
2534.33	774
2532.79	746
2531.25	738
2529.71	750
2528.17	755.5
2526.63	744
2525.09	736.5
2523.55	738
2522.01	741
2520.47	738
2518.92	724
2517.38	752
2515.84	715.5
2514.3	701
2512.75	712.5
2511.21	699
2509.67	707
2508.12	676.5
2506.58	714
2505.03	661
2503.49	692
2501.94	665
2500.39	705.5
2498.85	706
2497.3	701
2495.75	702
2494.2	691.5
2492.65	692
2491.11	722
2489.56	665.5
2488.01	689
2486.46	688.5
2484.91	693
2483.36	687
2481.8	687
2480.25	678
2478.7	694.5
2477.15	678.5
2475.6	632
2474.04	662
2472.49	667
2470.93	676
2469.38	659
2467.83	653
2466.27	643
2464.71	634.5
2463.16	639
2461.6	626
2460.05	625
2458.49	637
2456.93	659
2455.37	642
2453.81	641
2452.26	651.5
2450.7	635
2449.14	634
2447.58	647.5
2446.02	635
2444.46	651
2442.9	620.5
2441.33	603
2439.77	630
2438.21	582.5
2436.65	634
2435.08	616.5
2433.52	583
2431.96	597
2430.39	621.5
2428.83	564.5
2427.26	621
2425.7	569.5
2424.13	577
2422.56	611
2421	622
2419.43	583
2417.86	588
2416.3	594
2414.73	579
2413.16	584
2411.59	626.5
2410.02	599
2408.45	595
2406.88	566
2405.31	620.5
2403.74	550
2402.17	591
2400.6	582
2399.02	562
2397.45	595
2395.88	578
2394.3	568.5
2392.73	584
2391.16	568
2389.58	586.5
2388.01	602
2386.43	568
2384.86	573
2383.28	581.5
2381.7	536
2380.13	550.5
2378.55	554.5
2376.97	569
2375.39	595.5
2373.81	573
2372.23	579
2370.65	574.5
2369.07	543
2367.49	531
2365.91	531
2364.33	546
2362.75	560
2361.17	586
2359.59	564
2358.01	551
2356.42	526
2354.84	553
2353.25	562
2351.67	544
2350.09	543
2348.5	533.5
2346.92	524
2345.33	542
2343.74	567
2342.16	501
2340.57	570
2338.98	554.5
2337.39	527.5
2335.81	544
2334.22	544
2332.63	540.5
2331.04	527.5
2329.45	532.5
2327.86	559
2326.27	567
2324.68	543.5
2323.09	547
2321.49	525
2319.9	517
2318.31	499
2316.72	508
2315.12	504
2313.53	507
2311.93	502
2310.34	503
2308.74	530
2307.15	520
2305.55	510
2303.96	493.5
2302.36	514.5
2300.76	508
2299.17	503.5
2297.57	528
2295.97	503.5
2294.37	495
2292.77	510
2291.17	487
2289.57	475
2287.97	476
2286.37	489
2284.77	485.5
2283.17	490
2281.57	494
2279.96	475
2278.36	491.5
2276.76	474
2275.15	476
2273.55	461
2271.95	469
2270.34	489
2268.74	481
2267.13	462
2265.52	451.5
2263.92	493
2262.31	474.5
2260.7	472.5
2259.1	458
2257.49	440
2255.88	439
2254.27	468
2252.66	445.5
2251.05	491.5
2249.44	434.5
2247.83	431
2246.22	466
2244.61	426
2243	472
2241.39	432
2239.77	434
2238.16	417
2236.55	441
2234.93	463
2233.32	441
2231.7	426.5
2230.09	429
2228.47	418
2226.86	434.5
2225.24	432.5
2223.63	441
2222.01	424
2220.39	435
2218.77	410.5
2217.16	416
2215.54	426.5
2213.92	418
2212.3	439.5
2210.68	442
2209.06	438.5
2207.44	439.5
2205.82	393
2204.19	438.5
2202.57	426.5
2200.95	420.5
2199.33	432
2197.7	418.5
2196.08	411
2194.46	413
2192.83	392
2191.21	406.5
2189.58	416
2187.96	385
2186.33	438
2184.7	395
2183.08	385.5
2181.45	406
2179.82	414
2178.19	402.5
2176.57	419
2174.94	377
2173.31	438
2171.68	406.5
2170.05	415.5
2168.42	404.5
2166.79	389.5
2165.16	377
2163.52	377
2161.89	394
2160.26	369.5
2158.63	394
2156.99	399
2155.36	370
2153.73	396.5
2152.09	396
2150.46	391.5
2148.82	385.5
2147.18	393.5
2145.55	390
2143.91	369
2142.27	386
2140.64	354
2139	355
2137.36	390.5
2135.72	338.5
2134.08	351
2132.44	371
2130.8	361
2129.16	357.5
2127.52	368
2125.88	354
2124.24	326
2122.6	377
2120.95	343.5
2119.31	346
2117.67	335
2116.02	345.5
2114.38	354
2112.74	346
2111.09	350.5
2109.45	364.5
2107.8	340
2106.15	361
2104.51	316
2102.86	305
2101.21	351.5
2099.56	358.5
2097.92	347.5
2096.27	342
2094.62	324
2092.97	346.5
2091.32	321.5
2089.67	340
2088.02	293
2086.37	355
2084.72	363.5
2083.06	296
2081.41	313
2079.76	323.5
2078.1	349.5
2076.45	306
2074.8	334.5
2073.14	337
2071.49	327.5
2069.83	323
2068.18	314
2066.52	334.5
2064.86	312
2063.21	333.5
2061.55	317.5
2059.89	335
2058.23	325
2056.57	320
2054.92	327.5
2053.26	307.5
2051.6	312.5
2049.94	359
2048.27	290
2046.61	302
2044.95	310
2043.29	316.5
2041.63	303.5
2039.97	297.5
2038.3	298.5
2036.64	305
2034.97	320
2033.31	300
2031.64	285
2029.98	298
2028.31	280
2026.65	291
2024.98	292.5
2023.31	307
2021.65	277
2019.98	317
2018.31	291
2016.64	258
2014.97	305.5
2013.3	289.5
2011.63	302
2009.96	280
2008.29	296.5
2006.62	304
2004.95	269
2003.28	283
2001.6	256
1999.93	299
1998.26	282
1996.58	279
1994.91	300
1993.24	287
1991.56	258
1989.89	263
1988.21	258
1986.53	276.5
1984.86	279
1983.18	278
1981.5	266
1979.82	283
1978.15	280.5
1976.47	290
1974.79	271
1973.11	277
1971.43	294
1969.75	268.5
1968.07	254
1966.38	288
1964.7	271
1963.02	258.5
1961.34	273.5
1959.66	259.5
1957.97	293
1956.29	281.5
1954.6	280.5
1952.92	254
1951.23	259.5
1949.55	259
1947.86	288
1946.18	272
1944.49	290.5
1942.8	245
1941.11	275
1939.43	261.5
1937.74	268
1936.05	251
1934.36	260
1932.67	268
1930.98	264.5
1929.29	250.5
1927.6	262
1925.91	249
1924.21	233
1922.52	248
1920.83	271
1919.14	255.5
1917.44	248
1915.75	252
1914.05	262.5
1912.36	249.5
1910.66	251
1908.97	278
1907.27	264
1905.58	216
1903.88	276
1902.18	253
1900.48	258.5
1898.79	226.5
1897.09	246.5
1895.39	249
1893.69	263.5
1891.99	249
1890.29	236
1888.59	225
1886.89	240.5
1885.18	237.5
1883.48	245
1881.78	217
1880.08	235.5
1878.37	242
1876.67	214
1874.96	211
1873.26	243.5
1871.55	206
1869.85	230.5
1868.14	221
1866.44	229
1864.73	201
1863.02	252
1861.32	237
1859.61	221
1857.9	239
1856.19	227
1854.48	216
1852.77	215
1851.06	220.5
1849.35	191
1847.64	220
1845.93	230
1844.21	186
1842.5	215
1840.79	205.5
1839.08	236.5
1837.36	229
1835.65	194.5
1833.93	204.5
1832.22	236
1830.5	219
1828.79	189
1827.07	198
1825.36	214
1823.64	200
1821.92	229.5
1820.2	193.5
1818.48	237.5
1816.77	203
1815.05	230
1813.33	207
1811.61	231
1809.89	199
1808.16	224
1806.44	205
1804.72	187
1803	219
1801.28	225.5
1799.55	199
1797.83	200
1796.11	196
1794.38	201
1792.66	203.5
1790.93	214
1789.21	191
1787.48	202
1785.75	202
1784.03	210
1782.3	170
1780.57	211
1778.84	190.5
1777.11	220
1775.38	196
1773.66	205
1771.93	207
1770.19	227.5
1768.46	213
1766.73	200
1765	183
1763.27	214
1761.54	181
1759.8	209
1758.07	239.5
1756.34	236.5
1754.6	246
1752.87	228
1751.13	251
1749.4	232
1747.66	283.5
1745.92	257.5
1744.19	238
1742.45	230
1740.71	268
1738.97	260.5
1737.23	246
1735.49	247
1733.75	221
1732.01	247.5
1730.27	215
1728.53	223
1726.79	205
1725.05	220
1723.31	197
1721.57	188
1719.82	200
1718.08	202
1716.34	222
1714.59	193
1712.85	208
1711.1	203.5
1709.36	191.5
1707.61	221
1705.86	211.5
1704.12	202
1702.37	187
1700.62	193.5
1698.87	211.5
1697.12	195
1695.37	210.5
1693.62	216
1691.87	186.5
1690.12	205.5
1688.37	193.5
1686.62	194.5
1684.87	198
1683.12	191.5
1681.36	211.5
1679.61	203
1677.86	205.5
1676.1	228
1674.35	220
1672.59	226.5
1670.84	258
1669.08	243
1667.33	279
1665.57	274
1663.81	332.5
1662.06	374
1660.3	357
1658.54	383
1656.78	415
1655.02	384
1653.26	363
1651.5	321
1649.74	340.5
1647.98	295
1646.22	230
1644.46	251
1642.7	232
1640.93	221
1639.17	207
1637.41	200
1635.64	218
1633.88	211
1632.11	209.5
1630.35	177
1628.58	216.5
1626.81	186.5
1625.05	175.5
1623.28	223
1621.51	209
1619.75	203
1617.98	210.5
1616.21	197
1614.44	193.5
1612.67	189
1610.9	185
1609.13	188.5
1607.36	173
1605.58	186
1603.81	189
1602.04	177
1600.27	175
1598.49	177.5
1596.72	174
1594.95	192
1593.17	184
1591.4	202
1589.62	185
1587.84	197.5
1586.07	199
1584.29	195
1582.51	181
1580.74	168
1578.96	202.5
1577.18	201
1575.4	219
1573.62	189
1571.84	184.5
1570.06	195.5
1568.28	179
1566.5	207.5
1564.72	204.5
1562.93	198
1561.15	181
1559.37	198
1557.58	181
1555.8	206
1554.02	193
1552.23	207
1550.45	204.5
1548.66	202
1546.87	194
1545.09	190
1543.3	168
1541.51	189.5
1539.72	199.5
1537.94	203
1536.15	175
1534.36	225
1532.57	189.5
1530.78	210.5
1528.99	181
1527.2	175
1525.4	197
1523.61	199
1521.82	177
1520.03	187.5
1518.23	200
1516.44	209
1514.65	171
1512.85	202.5
1511.06	213.5
1509.26	186
1507.46	218
1505.67	241
1503.87	211
1502.07	222
1500.28	213
1498.48	211
1496.68	222
1494.88	222.5
1493.08	225
1491.28	264
1489.48	227
1487.68	269.5
1485.88	264
1484.08	291.5
1482.27	279
1480.47	304
1478.67	298
1476.86	322
1475.06	376.5
1473.25	378.5
1471.45	447
1469.64	411
1467.84	520.5
1466.03	502.5
1464.23	597
1462.42	575
1460.61	630
1458.8	651.5
1456.99	657
1455.18	684
1453.37	706
1451.56	717
1449.75	732
1447.94	784
1446.13	777
1444.32	872.5
1442.51	876.5
1440.7	893.5
1438.88	832
1437.07	751
1435.26	706
1433.44	641
1431.63	546
1429.81	487
1427.99	435
1426.18	414.5
1424.36	398.5
1422.54	357
1420.73	383.5
1418.91	357.5
1417.09	359.5
1415.27	306
1413.45	302
1411.63	325
1409.81	288
1407.99	285
1406.17	305
1404.35	278.5
1402.53	230
1400.7	266
1398.88	256
1397.06	232.5
1395.23	234.5
1393.41	252.5
1391.58	227
1389.76	241
1387.93	257
1386.11	244.5
1384.28	239
1382.45	228
1380.62	214
1378.8	265
1376.97	248
1375.14	239
1373.31	273.5
1371.48	293.5
1369.65	280.5
1367.82	271
1365.99	233
1364.16	244.5
1362.32	258
1360.49	253
1358.66	278
1356.82	245
1354.99	256
1353.16	239
1351.32	250
1349.48	271
1347.65	267
1345.81	282
1343.98	270
1342.14	285
1340.3	289.5
1338.46	280
1336.62	255.5
1334.79	295.5
1332.95	278
1331.11	317
1329.27	312.5
1327.42	338.5
1325.58	334
1323.74	363
1321.9	387
1320.06	409
1318.21	415
1316.37	430.5
1314.53	451
1312.68	477
1310.84	511
1308.99	553.5
1307.15	584
1305.3	635
1303.45	637
1301.61	692
1299.76	714
1297.91	721
1296.06	662.5
1294.21	580
1292.36	558
1290.51	465
1288.66	475.5
1286.81	437
1284.96	381
1283.11	442.5
1281.26	393
1279.4	392
1277.55	388
1275.7	403
1273.84	410
1271.99	411
1270.13	458
1268.28	422
1266.42	425
1264.56	431
1262.71	430
1260.85	412
1258.99	399
1257.13	380
1255.27	371
1253.41	378
1251.56	354
1249.7	308
1247.83	320.5
1245.97	309
1244.11	352.5
1242.25	288.5
1240.39	289.5
1238.52	271
1236.66	270.5
1234.8	275.5
1232.93	286.5
1231.07	268
1229.2	289
1227.34	284
1225.47	269.5
1223.6	251.5
1221.74	234
1219.87	269
1218	254
1216.13	258
1214.26	250
1212.39	239
1210.53	251
1208.65	240.5
1206.78	229
1204.91	270
1203.04	237
1201.17	250
1199.3	251.5
1197.42	246
1195.55	274.5
1193.68	224
1191.8	231
1189.93	220
1188.05	235.5
1186.17	245.5
1184.3	235
1182.42	261
1180.54	264
1178.67	236
1176.79	281
1174.91	276
1173.03	240
1171.15	286
1169.27	253.5
1167.39	245
1165.51	251.5
1163.63	257
1161.75	258
1159.86	245
1157.98	254.5
1156.1	240.5
1154.21	248
1152.33	269
1150.44	265
1148.56	263.5
1146.67	253
1144.79	298.5
1142.9	289
1141.01	280
1139.12	292.5
1137.24	301
1135.35	354.5
1133.46	386
1131.57	460
1129.68	436.5
1127.79	439
1125.9	434.5
1124.01	411
1122.12	384
1120.22	385
1118.33	363
1116.44	338.5
1114.54	342.5
1112.65	365
1110.75	362
1108.86	356
1106.96	378
1105.07	378
1103.17	419
1101.27	405
1099.38	438.5
1097.48	437
1095.58	462
1093.68	444
1091.78	483
1089.88	492.5
1087.98	493
1086.08	487
1084.18	508
1082.28	493.5
1080.38	492
1078.47	523
1076.57	493
1074.67	509
1072.76	499
1070.86	499
1068.95	553
1067.05	539
1065.14	602
1063.24	617.5
1061.33	559
1059.42	501
1057.51	468.5
1055.6	414.5
1053.7	423
1051.79	378
1049.88	392
1047.97	373
1046.06	379.5
1044.14	372.5
1042.23	347.5
1040.32	365.5
1038.41	380
1036.5	341
1034.58	338.5
1032.67	371.5
1030.75	369
1028.84	359.5
1026.92	399
1025.01	325
1023.09	357.5
1021.17	354
1019.26	365
1017.34	356
1015.42	347
1013.5	338
1011.58	348
1009.66	343.5
1007.74	336
1005.82	317
1003.9	304
1001.98	328
1000.06	289
998.134	309
996.212	338
994.288	313.5
992.364	310
990.44	306.5
988.515	305.5
986.589	335
984.663	343.5
982.737	360.5
980.81	371
978.883	360.5
976.955	376.5
975.027	362
973.098	415
971.169	368
969.239	398.5
967.308	413
965.378	421
963.447	348
961.516	384
959.583	402
957.65	360
955.718	390
953.784	375.5
951.85	374
949.916	385
947.981	418
946.045	409
944.109	431.5
942.173	419
940.236	420
938.298	393.5
936.36	423
934.422	393
932.484	389
930.544	408
928.604	386
926.664	350
924.724	404
922.782	385
920.84	371.5
918.898	417
916.955	395.5
915.012	410
913.068	379.5
911.124	375
909.18	399
907.235	403
905.289	437
903.343	398.5
901.397	435
899.45	408
897.502	444.5
895.554	475
893.605	468
891.657	519
889.707	473
887.758	512.5
885.807	463
883.856	489.5
881.905	456
879.953	450
878.001	465.5
876.048	501
874.094	464.5
872.14	495.5
870.186	472.5
868.232	532.5
866.276	479
864.321	507
862.365	484
860.408	441
858.451	444
856.493	469
854.535	446
852.576	412.5
850.617	446
848.658	467.5
846.698	468
844.737	444.5
842.776	442
840.814	427
838.852	443
836.89	420
834.927	389
832.963	419.5
830.999	389.5
829.035	404
827.07	389.5
825.105	353.5
823.139	387.5
821.172	380.5
819.206	351
817.238	365
815.27	352
813.301	331.5
811.333	316.5
809.363	357.5
807.394	345.5
805.424	324
803.453	340
801.482	299.5
799.509	300.5
797.538	315
795.565	308
793.592	306.5
791.618	303.5
789.643	275.5
787.669	260.5
785.693	286
783.718	307
781.742	285
779.765	280
777.788	280
775.811	301.5
773.832	279
771.853	281
769.875	285.5
767.895	258
765.915	302.5
763.934	291.5
761.953	293
759.972	289
757.99	228
756.007	278
754.024	268
752.041	297
750.056	308.5
748.072	290
746.087	275
744.102	308.5
742.116	287
740.13	321.5
738.143	300.5
736.155	286
734.167	295
732.179	285.5
730.19	277
728.2	314.5
726.21	302
724.22	297
722.229	272
720.237	281
718.246	301
716.253	301
714.26	295
712.267	301
710.273	299
708.279	294
706.284	265.5
704.289	283
702.293	289.5
700.296	288
698.3	275.5
696.303	287
694.305	269
692.307	293
690.307	292.5
688.308	262
686.309	256
684.308	272
682.308	270
680.306	267.5
678.304	313.5
676.302	256
674.3	302
672.296	264.5
670.293	277.5
668.289	280.5
666.284	277.5
664.278	283
662.273	263.5
660.266	278
658.26	295
656.252	281
654.244	290.5
652.237	306.5
650.227	305
648.218	297.5
646.209	292
644.198	298
642.188	308
640.177	289
638.165	320.5
636.153	309
634.14	325
632.128	336
630.113	321.5
628.099	307
626.085	307
624.07	312
622.054	309
620.038	334.5
618.021	312.5
616.004	336.5
613.986	328
611.968	294
609.949	345.5
607.93	348
605.911	350
603.891	351
601.87	317
599.848	343
597.827	320.5
595.805	343
593.782	341.5
591.759	341.5
589.735	366
587.711	328.5
585.687	340
583.661	313
581.636	355
579.609	314.5
577.583	327
575.555	302.5
573.527	329
571.5	305.5
569.471	312.5
567.441	324.5
565.412	301
563.382	349.5
561.351	293.5
559.32	322.5
557.289	299
555.257	333
553.223	361.5
551.19	339.5
549.157	336.5
547.122	343
545.088	365
543.053	360
541.017	364.5
538.981	426
536.943	418.5
534.907	485.5
532.869	546
530.831	602
528.792	841
526.752	1151.5
524.713	1633
522.673	1914
520.632	2011
518.591	1656
516.549	1276
514.507	965.5
512.464	769
510.42	588
508.377	511
506.332	465
504.288	440
502.242	431
500.196	401.5
498.15	427.5
496.104	395.5
494.056	407
492.008	415.5
489.96	388
487.911	414
485.862	418
483.812	384
481.761	386.5
479.71	370
477.659	424
475.607	393
473.555	380
471.502	395
469.448	405
467.395	415.5
465.34	388
463.285	354.5
461.23	406
459.174	420
457.118	379.5
455.061	422
453.003	379.5
450.945	409
448.887	419.5
446.828	417
444.768	422.5
442.708	427
440.647	410
438.587	413.5
436.525	417.5
434.463	442.5
432.4	392.5
430.337	415.5
428.274	437.5
426.21	421
424.145	460
422.079	427
420.014	405
417.948	423.5
415.882	437.5
413.814	464
411.746	416
409.679	440
407.609	412.5
405.54	424.5
403.47	450.5
401.401	423.5
399.329	435.5
397.258	456
395.187	413.5
393.114	431
391.041	428.5
388.968	439
386.895	432
384.82	461
382.745	451
380.67	452.5
378.594	467.5
376.517	436
374.44	444
372.363	457.5
370.286	433
368.207	464
366.128	430.5
364.049	480.5
361.969	465
359.888	499.5
357.807	495.5
355.725	466
353.643	444
351.561	469
349.477	447
347.394	445
345.31	451
343.226	496.5
341.141	497
339.055	455
336.968	478
334.882	493.5
332.795	495.5
330.707	489
328.618	530.5
326.53	471
324.44	505.5
322.351	503
320.26	505
318.17	499.5
316.078	481
313.987	528
311.895	537
309.802	560.5
307.708	555
305.614	573.5
303.52	568
301.425	585.5
299.329	537
297.233	528.5
295.137	538
293.039	558.5
290.942	532.5
288.844	565.5
286.745	550
284.647	573
282.546	566
280.446	559.5
278.346	610
276.245	581.5
274.143	589
272.041	579.5
269.939	586
267.835	610
265.731	610.5
263.627	637
261.522	577.5
259.417	610.5
257.311	615.5
255.204	609
253.098	605.5
250.99	621.5
248.882	617
246.774	650.5
244.664	623
242.555	664
240.445	681.5
238.334	664.5
236.223	676.5
234.112	660.5
232	691
229.888	670
227.775	705.5
225.661	683.5
223.546	705
221.431	709
219.316	715
217.201	702
215.084	699.5
212.967	713
210.85	717.5
208.732	736
206.614	725
204.495	747
202.375	730
200.256	773
198.135	730
196.014	731
193.893	734
191.771	722.5
189.648	721.5
187.525	737
185.401	734.5
183.277	726
181.152	751
179.027	779.5
176.901	776.5
174.775	727
172.648	780.5
170.521	789.5
168.393	778
166.265	797
164.136	790
162.007	818
159.876	867
157.746	811
155.615	886.5
153.483	900
151.351	897.5
149.219	915
147.086	1021.5
144.952	1003
142.818	1049.5
140.684	1052
138.548	1085
136.413	1124
134.276	1175
132.139	1203
130.002	1208.5
127.864	1275.5
125.725	1313
123.587	1400
121.447	1430
119.307	1426
117.166	1477
115.026	1596
112.885	1661
110.743	1653.5
108.6	1693
106.456	1750
104.313	1754
102.169	1756.5
100.023	1721
97.8789	1646
95.7328	1466
93.5869	1315
91.4392	1124
89.2919	909
87.1447	745.5
84.9959	560
