3528.51	193
3527.23	213.5
3525.95	227
3524.67	231.5
3523.39	227.5
3522.1	228.5
3520.82	222
3519.54	240.5
3518.26	239
3516.97	229.5
3515.69	220.5
3514.4	236
3513.12	229.5
3511.84	256
3510.55	232
3509.26	251.5
3507.98	228
3506.69	243.5
3505.41	250
3504.12	248
3502.83	260.5
3501.54	254
3500.26	258.5
3498.97	273
3497.68	270
3496.39	269
3495.1	275.5
3493.81	285
3492.52	290
3491.23	288.5
3489.94	302
3488.65	305.5
3487.36	304
3486.07	316
3484.78	309
3483.49	325.5
3482.19	317
3480.9	318.5
3479.61	323.5
3478.31	340
3477.02	331.5
3475.73	341.5
3474.43	334.5
3473.14	345
3471.84	343
3470.54	363
3469.25	351.5
3467.95	349
3466.66	344.5
3465.36	357
3464.06	355.5
3462.76	362.5
3461.46	372.5
3460.17	373
3458.87	366.5
3457.57	380
3456.27	383
3454.97	372
3453.67	392
3452.37	390.5
3451.07	388
3449.77	395.5
3448.47	396.5
3447.16	401
3445.86	403.5
3444.56	416
3443.26	428
3441.95	442.5
3440.65	428.5
3439.35	470.5
3438.04	467.5
3436.74	473
3435.43	493.5
3434.13	498
3432.82	490.5
3431.52	512.5
3430.21	510.5
3428.9	519.5
3427.6	546.5
3426.29	537.5
3424.98	547
3423.67	554.5
3422.36	563.5
3421.06	578
3419.75	581.5
3418.44	565.5
3417.13	577.5
3415.82	590.5
3414.51	592.5
3413.2	609.5
3411.88	596
3410.57	625.5
3409.26	626.5
3407.95	621
3406.64	629.5
3405.32	629.5
3404.01	650
3402.7	650
3401.38	657.5
3400.07	637.5
3398.75	660.5
3397.44	666
3396.12	679.5
3394.81	660
3393.49	683
3392.18	667.5
3390.86	686.5
3389.54	687
3388.23	699.5
3386.91	689
3385.59	723
3384.27	717.5
3382.95	709
3381.63	739.5
3380.31	737
3378.99	754.5
3377.67	747
3376.35	746.5
3375.03	776.5
3373.71	781
3372.39	784
3371.07	775.5
3369.75	781
3368.42	800.5
3367.1	797
3365.78	791.5
3364.45	784
3363.13	813
3361.81	817
3360.48	817
3359.16	830
3357.83	838
3356.51	853
3355.18	849.5
3353.85	841
3352.53	847.5
3351.2	859
3349.87	871.5
3348.54	872
3347.22	878.5
3345.89	878.5
3344.56	866
3343.23	860
3341.9	889
3340.57	871.5
3339.24	897
3337.91	896.5
3336.58	888.5
3335.25	911.5
3333.92	910
3332.58	907.5
3331.25	908
3329.92	916
3328.59	913
3327.25	906.5
3325.92	918.5
3324.58	920
3323.25	932
3321.92	931.5
3320.58	931
3319.25	949
3317.91	942
3316.57	956.5
3315.24	929
3313.9	976
3312.56	978.5
3311.23	965
3309.89	984
3308.55	983
3307.21	995
3305.87	1010.5
3304.53	993
3303.19	1000.5
3301.85	1001
3300.51	1023
3299.17	1001
3297.83	1033
3296.49	1008.5
3295.15	1006.5
3293.81	1038
3292.46	1035
3291.12	1035
3289.78	1037.5
3288.43	1072.5
3287.09	1034
3285.75	1048.5
3284.4	1056.5
3283.06	1091.5
3281.71	1066
3280.37	1070.5
3279.02	1094
3277.67	1098
3276.33	1080.5
3274.98	1104.5
3273.63	1093.5
3272.28	1119
3270.94	1152.5
3269.59	1106
3268.24	1162
3266.89	1148.5
3265.54	1172
3264.19	1183.5
3262.84	1209
3261.49	1221
3260.14	1261.5
3258.79	1289
3257.44	1302.5
3256.08	1336
3254.73	1362
3253.38	1403
3252.03	1427.5
3250.67	1463.5
3249.32	1530
3247.96	1568
3246.61	1566.5
3245.26	1609
3243.9	1648
3242.54	1699
3241.19	1758
3239.83	1795
3238.48	1829
3237.12	1876
3235.76	1933.5
3234.41	1990
3233.05	1975.5
3231.69	2049.5
3230.33	2074
3228.97	2105
3227.61	2113
3226.25	2187.5
3224.89	2227
3223.53	2230
3222.17	2240.5
3220.81	2278.5
3219.45	2319.5
3218.09	2301.5
3216.72	2372
3215.36	2379.5
3214	2415.5
3212.63	2430
3211.27	2459.5
3209.91	2470
3208.54	2486
3207.18	2512
3205.81	2525
3204.45	2545.5
3203.08	2550
3201.71	2552.5
3200.35	2562
3198.98	2582.5
3197.61	2606
3196.25	2633
3194.88	2606.5
3193.51	2608
3192.14	2675
3190.77	2680
3189.4	2658.5
3188.03	2694.5
3186.66	2692.5
3185.29	2696.5
3183.92	2719.5
3182.55	2787
3181.18	2766
3179.81	2772
3178.44	2786
3177.06	2867.5
3175.69	2872.5
3174.32	2853.5
3172.94	2927.5
3171.57	2906
3170.2	2952
3168.82	2954.5
3167.45	2983.5
3166.07	2995.5
3164.69	3006
3163.32	3042
3161.94	3069
3160.56	3068
3159.19	3093.5
3157.81	3097
3156.43	3177
3155.05	3181.5
3153.67	3185.5
3152.3	3245
3150.92	3240.5
3149.54	3251.5
3148.16	3250
3146.78	3336.5
3145.4	3296
3144.01	3343.5
3142.63	3375
3141.25	3399
3139.87	3453.5
3138.49	3430
3137.1	3475
3135.72	3471
3134.34	3511.5
3132.95	3490
3131.57	3574.5
3130.18	3570.5
3128.8	3632
3127.41	3640.5
3126.03	3647
3124.64	3677
3123.25	3665.5
3121.87	3718
3120.48	3728
3119.09	3747
3117.7	3758.5
3116.32	3777
3114.93	3854
3113.54	3826
3112.15	3844.5
3110.76	3836.5
3109.37	3884.5
3107.98	3903
3106.59	3914
3105.2	3910.5
3103.8	3947.5
3102.41	3974
3101.02	3979
3099.63	3982.5
3098.23	4052
3096.84	4009.5
3095.45	4026
3094.05	4064
3092.66	4027.5
3091.26	4066
3089.87	4105
3088.47	4097
3087.08	4146.5
3085.68	4142.5
3084.28	4178.5
3082.89	4182.5
3081.49	4175.5
3080.09	4189
3078.69	4199.5
3077.3	4227.5
3075.9	4227.5
3074.5	4182.5
3073.1	4229
3071.7	4215
3070.3	4205.5
3068.9	4218
3067.5	4258
3066.09	4296.5
3064.69	4329
3063.29	4299
3061.89	4306.5
3060.48	4325
3059.08	4338
3057.68	4332.5
3056.27	4354
3054.87	4405.5
3053.46	4393
3052.06	4287
3050.65	4442.5
3049.25	4438.5
3047.84	4437.5
3046.44	4475.5
3045.03	4495.5
3043.62	4508.5
3042.21	4448
3040.81	4498.5
3039.4	4481.5
3037.99	4532
3036.58	4578.5
3035.17	4574.5
3033.76	4544
3032.35	4569.5
3030.94	4583
3029.53	4615
3028.12	4594.5
3026.71	4607
3025.29	4627
3023.88	4590.5
3022.47	4614
3021.06	4629
3019.64	4602
3018.23	4619.5
3016.82	4646
3015.4	4627.5
3013.99	4663
3012.57	4635.5
3011.15	4703
3009.74	4671.5
3008.32	4692
3006.91	4708.5
3005.49	4752
3004.07	4718
3002.65	4729
3001.24	4785.5
2999.82	4839
2998.4	4843
2996.98	4867.5
2995.56	4902.5
2994.14	4924.5
2992.72	4861.5
2991.3	4929.5
2989.88	4962.5
2988.46	4999.5
2987.03	4985
2985.61	5025
2984.19	4990.5
2982.77	5065.5
2981.34	5057
2979.92	5102.5
2978.49	5155
2977.07	5172
2975.65	5125
2974.22	5212
2972.79	5241.5
2971.37	5276
2969.94	5281.5
2968.52	5280
2967.09	5336
2965.66	5317
2964.23	5345
2962.81	5301.5
2961.38	5287.5
2959.95	5354
2958.52	5327
2957.09	5409.5
2955.66	5371.5
2954.23	5396
2952.8	5344.5
2951.37	5416
2949.94	5413.5
2948.5	5435.5
2947.07	5442
2945.64	5436.5
2944.21	5479.5
2942.77	5443.5
2941.34	5447
2939.91	5464.5
2938.47	5432
2937.04	5508
2935.6	5517.5
2934.17	5590.5
2932.73	5571
2931.29	5596.5
2929.86	5618
2928.42	5624
2926.98	5658.5
2925.55	5655.5
2924.11	5647.5
2922.67	5647.5
2921.23	5712
2919.79	5716
2918.35	5664
2916.91	5662.5
2915.47	5702.5
2914.03	5707.5
2912.59	5726.5
2911.15	5695.5
2909.71	5717.5
2908.26	5751.5
2906.82	5728
2905.38	5743.5
2903.94	5746.5
2902.49	5756.5
2901.05	5780
2899.6	5725.5
2898.16	5796
2896.71	5846.5
2895.27	5813.5
2893.82	5797.5
2892.38	5768
2890.93	5810
2889.48	5787.5
2888.03	5808.5
2886.59	5802.5
2885.14	5801.5
2883.69	5856.5
2882.24	5787
2880.79	5842
2879.34	5809.5
2877.89	5867
2876.44	5833.5
2874.99	5803
2873.54	5842.5
2872.09	5848.5
2870.64	5842
2869.18	5850.5
2867.73	5839.5
2866.28	5892
2864.83	5868
2863.37	5857.5
2861.92	5802.5
2860.46	5809
2859.01	5870
2857.55	5798.5
2856.1	5863
2854.64	5907
2853.19	5890.5
2851.73	5848.5
2850.27	5822
2848.81	5880.5
2847.36	5845.5
2845.9	5873.5
2844.44	5877.5
2842.98	5866
2841.52	5894.5
2840.06	5857.5
2838.6	5877
2837.14	5904.5
2835.68	5833
2834.22	5824.5
2832.76	5869.5
2831.3	5822
2829.83	5888
2828.37	5830
2826.91	5888.5
2825.44	5868.5
2823.98	5816.5
2822.52	5839.5
2821.05	5867
2819.59	5831.5
2818.12	5835
2816.66	5827
2815.19	5780
2813.72	5817.5
2812.26	5737
2810.79	5774
2809.32	5814.5
2807.85	5745
2806.38	5729.5
2804.92	5752.5
2803.45	5754.5
2801.98	5759
2800.51	5756
2799.04	5814
2797.57	5810
2796.1	5788.5
2794.62	5829
2793.15	5794.5
2791.68	5808.5
2790.21	5809.5
2788.73	5779
2787.26	5788
2785.79	5811.5
2784.31	5812.5
2782.84	5813.5
2781.36	5833.5
2779.89	5826.5
2778.41	5847
2776.94	5910
2775.46	5889.5
2773.99	5903.5
2772.51	5898
2771.03	5901.5
2769.55	5945
2768.07	5962
2766.6	5980
2765.12	5940.5
2763.64	5993.5
2762.16	5988.5
2760.68	5956.5
2759.2	5952.5
2757.72	5957.5
2756.24	5948.5
2754.75	5938
2753.27	5921
2751.79	5943
2750.31	5951.5
2748.82	5935.5
2747.34	5919.5
2745.86	5909
2744.37	5929
2742.89	5907
2741.4	5874
2739.92	5894.5
2738.43	5877
2736.94	5869
2735.46	5871
2733.97	5806
2732.48	5794
2731	5852.5
2729.51	5858
2728.02	5804.5
2726.53	5810
2725.04	5861
2723.55	5804
2722.06	5821
2720.57	5802.5
2719.08	5802.5
2717.59	5834
2716.1	5848.5
2714.61	5806.5
2713.11	5849
2711.62	5823
2710.13	5847
2708.64	5834.5
2707.14	5850.5
2705.65	5800
2704.15	5795.5
2702.66	5801
2701.16	5763
2699.67	5784.5
2698.17	5796
2696.67	5762
2695.18	5752
2693.68	5697
2692.18	5738
2690.69	5740.5
2689.19	5720
2687.69	5719.5
2686.19	5708.5
2684.69	5710
2683.19	5725.5
2681.69	5645
2680.19	5646
2678.69	5639
2677.19	5595.5
2675.68	5610.5
2674.18	5622.5
2672.68	5640
2671.18	5625.5
2669.67	5633
2668.17	5604
2666.66	5648
2665.16	5629
2663.66	5621.5
2662.15	5556
2660.64	5585.5
2659.14	5575
2657.63	5597.5
2656.13	5564.5
2654.62	5569
2653.11	5540
2651.6	5521
2650.09	5510.5
2648.58	5548
2647.08	5586
2645.57	5539.5
2644.06	5485.5
2642.55	5486.5
2641.04	5445.5
2639.52	5449.5
2638.01	5443.5
2636.5	5442.5
2634.99	5424.5
2633.48	5398
2631.96	5411
2630.45	5377.5
2628.94	5347.5
2627.42	5398
2625.91	5373
2624.39	5373.5
2622.88	5365
2621.36	5361
2619.85	5359.5
2618.33	5375.5
2616.81	5352.5
2615.3	5349.5
2613.78	5298.5
2612.26	5359.5
2610.74	5332
2609.22	5333.5
2607.7	5370
2606.18	5333
2604.66	5304.5
2603.14	5340
2601.62	5282.5
2600.1	5171
2598.58	5198
2597.06	5196.5
2595.54	5201.5
2594.01	5162.5
2592.49	5143.5
2590.97	5092.5
2589.44	5178
2587.92	5117.5
2586.39	5079
2584.87	5131
2583.34	5049.5
2581.82	5087.5
2580.29	5074
2578.76	5088.5
2577.24	5063
2575.71	5063.5
2574.18	5074
2572.65	5085
2571.13	5084
2569.6	5050
2568.07	5051
2566.54	4993.5
2565.01	4991
2563.48	5032.5
2561.95	5054.5
2560.42	4981
2558.88	4990.5
2557.35	5019
2555.82	4972.5
2554.29	4943.5
2552.75	4941.5
2551.22	4918
2549.69	4921
2548.15	4893.5
2546.62	4949
2545.08	4870
2543.55	4904.5
2542.01	4884.5
2540.47	4887.5
2538.94	4830.5
2537.4	4815
2535.86	4821
2534.33	4804.5
2532.79	4836.5
2531.25	4796
2529.71	4788.5
2528.17	4792
2526.63	4714
2525.09	4734.5
2523.55	4777.5
2522.01	4737.5
2520.47	4685.5
2518.92	4634
2517.38	4641
2515.84	4652.5
2514.3	4628.5
2512.75	4621.5
2511.21	4596
2509.67	4606
2508.12	4556
2506.58	4549
2505.03	4536
2503.49	4519
2501.94	4500.5
2500.39	4487.5
2498.85	4441.5
2497.3	4475.5
2495.75	4494.5
2494.2	4480.5
2492.65	4436
2491.11	4411.5
2489.56	4402.5
2488.01	4396
2486.46	4364
2484.91	4334
2483.36	4348.5
2481.8	4311.5
2480.25	4341.5
2478.7	4301.5
2477.15	4272.5
2475.6	4257.5
2474.04	4253.5
2472.49	4246.5
2470.93	4213.5
2469.38	4175.5
2467.83	4164.5
2466.27	4149.5
2464.71	4173.5
2463.16	4145.5
2461.6	4136
2460.05	4102.5
2458.49	4101.5
2456.93	4079
2455.37	4103
2453.81	4052
2452.26	4051.5
2450.7	4062.5
2449.14	4037
2447.58	3993
2446.02	4004
2444.46	3960.5
2442.9	3939.5
2441.33	3913.5
2439.77	3974.5
2438.21	3948
2436.65	3943.5
2435.08	3899.5
2433.52	3894.5
2431.96	3932
2430.39	3935
2428.83	3901
2427.26	3858
2425.7	3900
2424.13	3843
2422.56	3850.5
2421	3825
2419.43	3844.5
2417.86	3815
2416.3	3816.5
2414.73	3791
2413.16	3786
2411.59	3810.5
2410.02	3761.5
2408.45	3733
2406.88	3764.5
2405.31	3779
2403.74	3766
2402.17	3758.5
2400.6	3747
2399.02	3709
2397.45	3725.5
2395.88	3717.5
2394.3	3685
2392.73	3686
2391.16	3705.5
2389.58	3653.5
2388.01	3649
2386.43	3652.5
2384.86	3643
2383.28	3649.5
2381.7	3659
2380.13	3667
2378.55	3674
2376.97	3650.5
2375.39	3619
2373.81	3632
2372.23	3614.5
2370.65	3616
2369.07	3620
2367.49	3575
2365.91	3586.5
2364.33	3567.5
2362.75	3555.5
2361.17	3572
2359.59	3575
2358.01	3575
2356.42	3534.5
2354.84	3509.5
2353.25	3517
2351.67	3539.5
2350.09	3490.5
2348.5	3496.5
2346.92	3525
2345.33	3492.5
2343.74	3513.5
2342.16	3472.5
2340.57	3486.5
2338.98	3443
2337.39	3484
2335.81	3404
2334.22	3421
2332.63	3462.5
2331.04	3394
2329.45	3441
2327.86	3410.5
2326.27	3364.5
2324.68	3355.5
2323.09	3374.5
2321.49	3357
2319.9	3382.5
2318.31	3378
2316.72	3332.5
2315.12	3356.5
2313.53	3307
2311.93	3281
2310.34	3289.5
2308.74	3257.5
2307.15	3235
2305.55	3248
2303.96	3211.5
2302.36	3221
2300.76	3158.5
2299.17	3215
2297.57	3169.5
2295.97	3151
2294.37	3153.5
2292.77	3179.5
2291.17	3130.5
2289.57	3128
2287.97	3133
2286.37	3146
2284.77	3147
2283.17	3109
2281.57	3125.5
2279.96	3090
2278.36	3100.5
2276.76	3096.5
2275.15	3039.5
2273.55	3005
2271.95	3025
2270.34	3012
2268.74	3024.5
2267.13	2952
2265.52	2955.5
2263.92	2997.5
2262.31	2991.5
2260.7	3003.5
2259.1	2943.5
2257.49	2912.5
2255.88	2974
2254.27	2927.5
2252.66	2916.5
2251.05	2912
2249.44	2926
2247.83	2928
2246.22	2872
2244.61	2909.5
2243	2902
2241.39	2904.5
2239.77	2892.5
2238.16	2897.5
2236.55	2816
2234.93	2779.5
2233.32	2803.5
2231.7	2827.5
2230.09	2762.5
2228.47	2733.5
2226.86	2742.5
2225.24	2720.5
2223.63	2712.5
2222.01	2720.5
2220.39	2682.5
2218.77	2726
2217.16	2703
2215.54	2689.5
2213.92	2708.5
2212.3	2677.5
2210.68	2692.5
2209.06	2671
2207.44	2646.5
2205.82	2643.5
2204.19	2670
2202.57	2636.5
2200.95	2645
2199.33	2631
2197.7	2614.5
2196.08	2605.5
2194.46	2590
2192.83	2576.5
2191.21	2582.5
2189.58	2574
2187.96	2592
2186.33	2556
2184.7	2529.5
2183.08	2550.5
2181.45	2496
2179.82	2526
2178.19	2544
2176.57	2503
2174.94	2496
2173.31	2482.5
2171.68	2488
2170.05	2433.5
2168.42	2457
2166.79	2447.5
2165.16	2429
2163.52	2453.5
2161.89	2426
2160.26	2415.5
2158.63	2390.5
2156.99	2426.5
2155.36	2371
2153.73	2411
2152.09	2351
2150.46	2374.5
2148.82	2368.5
2147.18	2370
2145.55	2299.5
2143.91	2331.5
2142.27	2354
2140.64	2354
2139	2310
2137.36	2312
2135.72	2248.5
2134.08	2273
2132.44	2261.5
2130.8	2241.5
2129.16	2229
2127.52	2192.5
2125.88	2186.5
2124.24	2225
2122.6	2178
2120.95	2198
2119.31	2162.5
2117.67	2168.5
2116.02	2135.5
2114.38	2163.5
2112.74	2136
2111.09	2142
2109.45	2116
2107.8	2148.5
2106.15	2125.5
2104.51	2089.5
2102.86	2087.5
2101.21	2060.5
2099.56	2075.5
2097.92	2083.5
2096.27	2065.5
2094.62	2085.5
2092.97	2053.5
2091.32	2032
2089.67	2061
2088.02	2020
2086.37	2032
2084.72	2026.5
2083.06	2034
2081.41	2031.5
2079.76	2016.5
2078.1	2026.5
2076.45	2025
2074.8	2008.5
2073.14	1980.5
2071.49	1988
2069.83	1969.5
2068.18	2002
2066.52	1958
2064.86	1975.5
2063.21	1958.5
2061.55	1960
2059.89	1941
2058.23	1942
2056.57	1938.5
2054.92	1916
2053.26	1932
2051.6	1907.5
2049.94	1893.5
2048.27	1864.5
2046.61	1888
2044.95	1876.5
2043.29	1863.5
2041.63	1852
2039.97	1873
2038.3	1832
2036.64	1811
2034.97	1795
2033.31	1792.5
2031.64	1772.5
2029.98	1770.5
2028.31	1772
2026.65	1745
2024.98	1757.5
2023.31	1714.5
2021.65	1731.5
2019.98	1724.5
2018.31	1753
2016.64	1745.5
2014.97	1710.5
2013.3	1731
2011.63	1701
2009.96	1735
2008.29	1683
2006.62	1663
2004.95	1667
2003.28	1644
2001.6	1684.5
1999.93	1652
1998.26	1669.5
1996.58	1648.5
1994.91	1668.5
1993.24	1635.5
1991.56	1630.5
1989.89	1633.5
1988.21	1636
1986.53	1622
1984.86	1602
1983.18	1600
1981.5	1603
1979.82	1597
1978.15	1604.5
1976.47	1596
1974.79	1571
1973.11	1564
1971.43	1553.5
1969.75	1570.5
1968.07	1530
1966.38	1555.5
1964.7	1527
1963.02	1539.5
1961.34	1532.5
1959.66	1518.5
1957.97	1515
1956.29	1519.5
1954.6	1532
1952.92	1520
1951.23	1492
1949.55	1476
1947.86	1468
1946.18	1495.5
1944.49	1453
1942.8	1451
1941.11	1425.5
1939.43	1446
1937.74	1445.5
1936.05	1432.5
1934.36	1416
1932.67	1406.5
1930.98	1425.5
1929.29	1422
1927.6	1434.5
1925.91	1397
1924.21	1378.5
1922.52	1381
1920.83	1382
1919.14	1358
1917.44	1368.5
1915.75	1343
1914.05	1360.5
1912.36	1368
1910.66	1353.5
1908.97	1326
1907.27	1348
1905.58	1305
1903.88	1324
1902.18	1302.5
1900.48	1299
1898.79	1293
1897.09	1290.5
1895.39	1270
1893.69	1249.5
1891.99	1256.5
1890.29	1260.5
1888.59	1242
1886.89	1250.5
1885.18	1227.5
1883.48	1238.5
1881.78	1235
1880.08	1220
1878.37	1225
1876.67	1196
1874.96	1188
1873.26	1191.5
1871.55	1178.5
1869.85	1190
1868.14	1190
1866.44	1166.5
1864.73	1146
1863.02	1139.5
1861.32	1169.5
1859.61	1160.5
1857.9	1171
1856.19	1160.5
1854.48	1129.5
1852.77	1157
1851.06	1136
1849.35	1128.5
1847.64	1130.5
1845.93	1138.5
1844.21	1108
1842.5	1115
1840.79	1093
1839.08	1082.5
1837.36	1088
1835.65	1075
1833.93	1081.5
1832.22	1057.5
1830.5	1081.5
1828.79	1059.5
1827.07	1050.5
1825.36	1044
1823.64	1030
1821.92	1032.5
1820.2	1021.5
1818.48	1033.5
1816.77	1021
1815.05	1010
1813.33	1015
1811.61	1022.5
1809.89	1028
1808.16	1006
1806.44	996.5
1804.72	993
1803	1013
1801.28	992.5
1799.55	976.5
1797.83	977.5
1796.11	966.5
1794.38	967
1792.66	944.5
1790.93	930.5
1789.21	953
1787.48	935.5
1785.75	954
1784.03	939.5
1782.3	939
1780.57	948
1778.84	926
1777.11	948
1775.38	933.5
1773.66	937
1771.93	937
1770.19	932
1768.46	921.5
1766.73	911.5
1765	926
1763.27	929
1761.54	904.5
1759.8	893
1758.07	893.5
1756.34	916.5
1754.6	900.5
1752.87	925
1751.13	895
1749.4	877
1747.66	897.5
1745.92	870.5
1744.19	886
1742.45	877.5
1740.71	863.5
1738.97	873
1737.23	863.5
1735.49	881.5
1733.75	861
1732.01	855.5
1730.27	841.5
1728.53	850
1726.79	838.5
1725.05	856
1723.31	840
1721.57	825
1719.82	827
1718.08	809
1716.34	810.5
1714.59	802
1712.85	809
1711.1	783.5
1709.36	801
1707.61	786.5
1705.86	801.5
1704.12	776
1702.37	775.5
1700.62	785
1698.87	777
1697.12	779
1695.37	766
1693.62	781
1691.87	766
1690.12	741
1688.37	752
1686.62	742
1684.87	740
1683.12	737
1681.36	752.5
1679.61	730
1677.86	736
1676.1	726.5
1674.35	724.5
1672.59	736.5
1670.84	722.5
1669.08	710.5
1667.33	709
1665.57	690
1663.81	695.5
1662.06	702
1660.3	721
1658.54	694
1656.78	677.5
1655.02	687
1653.26	690
1651.5	665
1649.74	685
1647.98	679
1646.22	667.5
1644.46	672.5
1642.7	668
1640.93	664.5
1639.17	679.5
1637.41	658.5
1635.64	672
1633.88	681
1632.11	657
1630.35	645.5
1628.58	650.5
1626.81	656.5
1625.05	654
1623.28	641.5
1621.51	615.5
1619.75	631.5
1617.98	628.5
1616.21	634.5
1614.44	631
1612.67	626
1610.9	617.5
1609.13	625.5
1607.36	637
1605.58	612.5
1603.81	609.5
1602.04	599.5
1600.27	631
1598.49	600
1596.72	618
1594.95	625.5
1593.17	595.5
1591.4	606.5
1589.62	594
1587.84	592
1586.07	593
1584.29	600
1582.51	593
1580.74	581.5
1578.96	575.5
1577.18	585
1575.4	567
1573.62	571
1571.84	582.5
1570.06	574
1568.28	562
1566.5	574
1564.72	554
1562.93	549.5
1561.15	539.5
1559.37	562
1557.58	543.5
1555.8	539.5
1554.02	557
1552.23	540
1550.45	540
1548.66	546
1546.87	551
1545.09	536
1543.3	527.5
1541.51	517.5
1539.72	511
1537.94	527
1536.15	509
1534.36	520.5
1532.57	499.5
1530.78	516
1528.99	513.5
1527.2	502
1525.4	499.5
1523.61	498.5
1521.82	482.5
1520.03	488
1518.23	496.5
1516.44	494.5
1514.65	490.5
1512.85	494
1511.06	495.5
1509.26	484.5
1507.46	483.5
1505.67	486.5
1503.87	472.5
1502.07	473
1500.28	483.5
1498.48	467
1496.68	465.5
1494.88	463
1493.08	465.5
1491.28	473
1489.48	466
1487.68	462.5
1485.88	455.5
1484.08	459
1482.27	447
1480.47	448
1478.67	443.5
1476.86	458
1475.06	465.5
1473.25	440
1471.45	445
1469.64	439
1467.84	439.5
1466.03	438.5
1464.23	444
1462.42	430.5
1460.61	434
1458.8	432.5
1456.99	422
1455.18	431.5
1453.37	424
1451.56	431.5
1449.75	417.5
1447.94	421
1446.13	430
1444.32	416
1442.51	413.5
1440.7	425
1438.88	409
1437.07	402
1435.26	405
1433.44	398.5
1431.63	422
1429.81	419
1427.99	389
1426.18	397.5
1424.36	391
1422.54	401
1420.73	394.5
1418.91	391.5
1417.09	406
1415.27	391.5
1413.45	389
1411.63	391
1409.81	371.5
1407.99	382
1406.17	380
1404.35	382.5
1402.53	371.5
1400.7	393.5
1398.88	380
1397.06	392
1395.23	367
1393.41	366
1391.58	380
1389.76	369.5
1387.93	367
1386.11	373
1384.28	370.5
1382.45	358
1380.62	359
1378.8	336
1376.97	368
1375.14	344
1373.31	358
1371.48	346
1369.65	343
1367.82	356.5
1365.99	349
1364.16	341
1362.32	338.5
1360.49	342.5
1358.66	333.5
1356.82	346.5
1354.99	337.5
1353.16	340.5
1351.32	339.5
1349.48	334.5
1347.65	321.5
1345.81	330.5
1343.98	330.5
1342.14	317
1340.3	326.5
1338.46	325.5
1336.62	324.5
1334.79	316.5
1332.95	317
1331.11	330.5
1329.27	319
1327.42	312
1325.58	312
1323.74	317.5
1321.9	296
1320.06	310.5
1318.21	312
1316.37	295.5
1314.53	321
1312.68	313.5
1310.84	306
1308.99	307
1307.15	309
1305.3	299
1303.45	293
1301.61	300
1299.76	297
1297.91	291
1296.06	293
1294.21	295.5
1292.36	289.5
1290.51	278.5
1288.66	290
1286.81	281
1284.96	283.5
1283.11	288
1281.26	268
1279.4	271
1277.55	279
1275.7	281
1273.84	272
1271.99	274
1270.13	267.5
1268.28	269
1266.42	254
1264.56	254
1262.71	260.5
1260.85	254.5
1258.99	257.5
1257.13	259
1255.27	261
1253.41	267
1251.56	262
1249.7	255
1247.83	254.5
1245.97	245.5
1244.11	266
1242.25	250.5
1240.39	252
1238.52	256.5
1236.66	247
1234.8	251
1232.93	260.5
1231.07	254
1229.2	247
1227.34	247.5
1225.47	247
1223.6	224
1221.74	242
1219.87	241
1218	236.5
1216.13	238.5
1214.26	241.5
1212.39	241
1210.53	233.5
1208.65	240.5
1206.78	229
1204.91	231.5
1203.04	230
1201.17	226.5
1199.3	231.5
1197.42	235.5
1195.55	230
1193.68	231
1191.8	222
1189.93	230
1188.05	222
1186.17	227.5
1184.3	216
1182.42	215.5
1180.54	215
1178.67	222.5
1176.79	210.5
1174.91	219
1173.03	214
1171.15	211.5
1169.27	220
1167.39	215
1165.51	216
1163.63	224
1161.75	215
1159.86	211
1157.98	205
1156.1	217.5
1154.21	204
1152.33	200.5
1150.44	207.5
1148.56	204
1146.67	212
1144.79	203.5
1142.9	204.5
1141.01	202
1139.12	190
1137.24	204.5
1135.35	207
1133.46	203
1131.57	204.5
1129.68	194
1127.79	205
1125.9	196.5
1124.01	194.5
1122.12	199.5
1120.22	194
1118.33	197.5
1116.44	191.5
1114.54	190
1112.65	190.5
1110.75	189.5
1108.86	191.5
1106.96	185.5
1105.07	182
1103.17	178.5
1101.27	193
1099.38	185.5
1097.48	190
1095.58	179
1093.68	188
1091.78	175.5
1089.88	192.5
1087.98	177.5
1086.08	192
1084.18	191
1082.28	175.5
1080.38	179
1078.47	180
1076.57	179.5
1074.67	173
1072.76	165.5
1070.86	181.5
1068.95	173.5
1067.05	177.5
1065.14	168
1063.24	167
1061.33	174
1059.42	156
1057.51	180
1055.6	173.5
1053.7	167
1051.79	169
1049.88	171
1047.97	171.5
1046.06	168.5
1044.14	166.5
1042.23	165.5
1040.32	162.5
1038.41	163
1036.5	172
1034.58	163.5
1032.67	161.5
1030.75	170.5
1028.84	171.5
1026.92	179.5
1025.01	172.5
1023.09	169.5
1021.17	162
1019.26	175.5
1017.34	177
1015.42	177
1013.5	176
1011.58	174
1009.66	180.5
1007.74	173.5
1005.82	176
1003.9	173
1001.98	178
1000.06	183
998.134	184
996.212	205
994.288	184
992.364	195
990.44	215.5
988.515	222.5
986.589	217
984.663	245
982.737	230
980.81	237
978.883	233.5
976.955	219
975.027	225.5
973.098	245
971.169	238
969.239	239
967.308	230
965.378	240
963.447	232
961.516	237
959.583	241.5
957.65	238
955.718	246
953.784	246
951.85	251
949.916	255
947.981	266.5
946.045	255
944.109	270
942.173	271
940.236	263
938.298	246
936.36	254.5
934.422	230.5
932.484	221
930.544	212
928.604	195
926.664	176
924.724	166.5
922.782	156.5
920.84	160.5
918.898	161
916.955	155
915.012	156
913.068	151
911.124	159
909.18	161
907.235	146
905.289	156
903.343	152
901.397	144
899.45	148.5
897.502	152
895.554	145.5
893.605	142.5
891.657	144
889.707	139.5
887.758	141
885.807	141
883.856	145.5
881.905	133.5
879.953	141.5
878.001	136
876.048	153
874.094	148.5
872.14	128.5
870.186	146
868.232	146.5
866.276	148
864.321	140
862.365	167
860.408	141.5
858.451	146
856.493	128.5
854.535	134.5
852.576	132
850.617	144.5
848.658	137.5
846.698	133
844.737	131.5
842.776	141
840.814	136
838.852	131.5
836.89	129
834.927	134.5
832.963	129
830.999	142.5
829.035	137
827.07	132
825.105	136.5
823.139	132
821.172	139
819.206	128
817.238	131
815.27	134
813.301	136
811.333	137
809.363	128.5
807.394	127
805.424	132.5
803.453	124
801.482	136.5
799.509	130
797.538	122
795.565	126.5
793.592	129.5
791.618	122
789.643	121
787.669	130.5
785.693	133.5
783.718	122.5
781.742	114
779.765	132
777.788	125
775.811	116
773.832	125
771.853	108.5
769.875	123
767.895	117
765.915	112
763.934	117
761.953	124.5
759.972	122
757.99	112.5
756.007	115
754.024	120.5
752.041	118
750.056	119
748.072	107.5
746.087	124.5
744.102	118
742.116	110
740.13	132.5
738.143	114
736.155	108.5
734.167	113.5
732.179	114.5
730.19	120.5
728.2	113
726.21	112
724.22	119
722.229	108.5
720.237	114.5
718.246	115.5
716.253	100.5
714.26	110
712.267	116
710.273	118
708.279	114
706.284	118.5
704.289	103
702.293	107
700.296	118
698.3	110.5
696.303	122
694.305	118.5
692.307	119
690.307	115
688.308	118.5
686.309	114
684.308	133
682.308	126.5
680.306	128
678.304	121
676.302	135
674.3	130.5
672.296	124
670.293	131.5
668.289	130
666.284	127.5
664.278	133.5
662.273	137
660.266	133.5
658.26	133
656.252	131.5
654.244	129
652.237	125.5
650.227	132
648.218	130
646.209	134.5
644.198	135
642.188	128
640.177	138
638.165	123.5
636.153	134
634.14	126
632.128	135
630.113	137
628.099	131.5
626.085	144
624.07	147
622.054	131
620.038	139.5
618.021	134.5
616.004	139.5
613.986	124.5
611.968	129.5
609.949	137
607.93	134
605.911	128
603.891	131.5
601.87	127
599.848	127.5
597.827	119
595.805	130
593.782	129
591.759	124
589.735	123
587.711	122
585.687	118.5
583.661	129
581.636	126
579.609	126
577.583	120
575.555	132
573.527	128
571.5	134
569.471	136
567.441	139.5
565.412	141
563.382	122.5
561.351	134
559.32	145
557.289	148.5
555.257	142.5
553.223	141.5
551.19	155
549.157	169.5
547.122	178.5
545.088	197.5
543.053	204
541.017	219
538.981	251
536.943	286
534.907	370.5
532.869	492
530.831	712
528.792	1084.5
526.752	1709
524.713	2599
522.673	3321
520.632	3337
518.591	2749
516.549	1921.5
514.507	1286.5
512.464	788
510.42	532
508.377	387.5
506.332	288
504.288	261.5
502.242	228
500.196	212
498.15	195
496.104	180
494.056	179.5
492.008	169
489.96	163.5
487.911	163
485.862	160
483.812	152
481.761	148
479.71	150.5
477.659	145
475.607	132.5
473.555	149.5
471.502	140
469.448	137
467.395	130
465.34	127.5
463.285	128
461.23	134
459.174	139
457.118	140
455.061	133
453.003	137.5
450.945	141
448.887	143.5
446.828	142.5
444.768	141.5
442.708	150.5
440.647	147.5
438.587	148
436.525	147
434.463	156
432.4	164
430.337	154.5
428.274	158
426.21	145.5
424.145	157
422.079	143.5
420.014	149
417.948	144
415.882	152.5
413.814	139
411.746	154
409.679	143.5
407.609	142.5
405.54	150
403.47	140.5
401.401	144.5
399.329	152.5
397.258	150
395.187	156.5
393.114	144
391.041	152.5
388.968	144
386.895	150
384.82	156
382.745	145
380.67	156
378.594	149
376.517	152
374.44	156.5
372.363	151.5
370.286	162
368.207	157.5
366.128	154
364.049	153
361.969	147
359.888	160.5
357.807	160
355.725	160
353.643	151.5
351.561	159.5
349.477	159
347.394	164
345.31	162.5
343.226	168
341.141	175
339.055	167
336.968	169
334.882	182.5
332.795	171.5
330.707	179
328.618	194
326.53	181
324.44	197.5
322.351	202.5
320.26	206
318.17	212
316.078	219.5
313.987	217
311.895	247
309.802	264.5
307.708	273.5
305.614	267
303.52	277.5
301.425	270.5
299.329	261
297.233	248
295.137	230
293.039	212.5
290.942	192
288.844	203.5
286.745	195.5
284.647	179
282.546	178
280.446	182
278.346	169
276.245	168.5
274.143	173.5
272.041	167.5
269.939	162.5
267.835	162
265.731	165
263.627	157
261.522	155
259.417	164.5
257.311	159
255.204	155
253.098	145
250.99	153.5
248.882	159
246.774	161.5
244.664	157
242.555	161
240.445	155
238.334	154
236.223	154
234.112	164.5
232	157
229.888	147
227.775	148.5
225.661	148.5
223.546	138
221.431	147
219.316	138
217.201	133
215.084	136.5
212.967	142
210.85	140.5
208.732	144.5
206.614	130.5
204.495	135.5
202.375	138
200.256	131
198.135	128.5
196.014	138
193.893	142
191.771	141.5
189.648	149
187.525	144
185.401	142.5
183.277	147.5
181.152	141
179.027	148
176.901	150
174.775	142.5
172.648	153
170.521	146
168.393	151
166.265	148
164.136	156
162.007	165.5
159.876	169
157.746	167
155.615	165
153.483	164.5
151.351	179.5
149.219	174
147.086	187
144.952	185
142.818	203
140.684	203.5
138.548	196
136.413	189.5
134.276	212
132.139	214.5
130.002	219
127.864	225
125.725	230.5
123.587	233
121.447	246.5
119.307	244.5
117.166	251
115.026	259.5
112.885	266
110.743	286.5
108.6	280.5
106.456	284
104.313	273.5
102.169	270
100.023	263
97.8789	264.5
95.7328	244
93.5869	216
91.4392	188.5
89.2919	161.5
87.1447	135.5
84.9959	106.5
