3528.51	232
3527.23	250.5
3525.95	253
3524.67	256.5
3523.39	264
3522.1	276
3520.82	286
3519.54	285
3518.26	268
3516.97	281.5
3515.69	280
3514.4	282.5
3513.12	283
3511.84	279.5
3510.55	277.5
3509.26	280.5
3507.98	285.5
3506.69	300.5
3505.41	299.5
3504.12	289.5
3502.83	302.5
3501.54	312
3500.26	316
3498.97	317
3497.68	309
3496.39	326.5
3495.1	314
3493.81	325
3492.52	339.5
3491.23	343
3489.94	335.5
3488.65	340.5
3487.36	362
3486.07	362.5
3484.78	357.5
3483.49	372
3482.19	380.5
3480.9	379
3479.61	388
3478.31	379
3477.02	403
3475.73	397
3474.43	406
3473.14	415
3471.84	414.5
3470.54	422
3469.25	404.5
3467.95	431
3466.66	419
3465.36	412
3464.06	418.5
3462.76	436.5
3461.46	427.5
3460.17	434.5
3458.87	419
3457.57	435.5
3456.27	440
3454.97	456
3453.67	445
3452.37	464
3451.07	460.5
3449.77	448.5
3448.47	477.5
3447.16	477
3445.86	482
3444.56	510
3443.26	503
3441.95	503
3440.65	513
3439.35	502.5
3438.04	543.5
3436.74	546
3435.43	524.5
3434.13	566.5
3432.82	554.5
3431.52	572.5
3430.21	577
3428.9	598.5
3427.6	612
3426.29	603.5
3424.98	636.5
3423.67	631
3422.36	639
3421.06	646
3419.75	658.5
3418.44	657.5
3417.13	660
3415.82	657
3414.51	692
3413.2	688.5
3411.88	699
3410.57	712
3409.26	713.5
3407.95	714.5
3406.64	716.5
3405.32	714.5
3404.01	713
3402.7	748
3401.38	752
3400.07	759
3398.75	747
3397.44	771
3396.12	780
3394.81	773
3393.49	776.5
3392.18	800
3390.86	800
3389.54	812
3388.23	822.5
3386.91	806.5
3385.59	825.5
3384.27	871
3382.95	851.5
3381.63	861
3380.31	869.5
3378.99	872
3377.67	870.5
3376.35	899
3375.03	902.5
3373.71	896.5
3372.39	909.5
3371.07	911.5
3369.75	924.5
3368.42	929.5
3367.1	931
3365.78	952
3364.45	972.5
3363.13	967
3361.81	948.5
3360.48	969.5
3359.16	986
3357.83	984.5
3356.51	997
3355.18	979.5
3353.85	992
3352.53	1017.5
3351.2	998
3349.87	1006.5
3348.54	1003
3347.22	1028
3345.89	1019
3344.56	1022.5
3343.23	1028
3341.9	1031
3340.57	1047.5
3339.24	1054
3337.91	1026
3336.58	1047
3335.25	1048
3333.92	1051.5
3332.58	1077
3331.25	1081.5
3329.92	1070.5
3328.59	1063.5
3327.25	1058.5
3325.92	1075
3324.58	1075.5
3323.25	1092.5
3321.92	1116.5
3320.58	1085
3319.25	1102.5
3317.91	1127.5
3316.57	1131.5
3315.24	1132.5
3313.9	1140.5
3312.56	1140.5
3311.23	1135.5
3309.89	1157
3308.55	1172
3307.21	1164.5
3305.87	1165
3304.53	1172.5
3303.19	1193.5
3301.85	1197.5
3300.51	1181
3299.17	1182.5
3297.83	1199.5
3296.49	1168
3295.15	1232.5
3293.81	1203.5
3292.46	1234
3291.12	1214.5
3289.78	1253
3288.43	1239.5
3287.09	1236
3285.75	1228
3284.4	1254.5
3283.06	1245
3281.71	1239
3280.37	1262.5
3279.02	1267
3277.67	1268.5
3276.33	1268.5
3274.98	1281
3273.63	1295.5
3272.28	1310.5
3270.94	1293
3269.59	1340
3268.24	1308
3266.89	1340
3265.54	1347
3264.19	1384
3262.84	1395.5
3261.49	1411.5
3260.14	1439.5
3258.79	1475.5
3257.44	1490
3256.08	1492
3254.73	1526.5
3253.38	1523.5
3252.03	1542.5
3250.67	1620
3249.32	1650
3247.96	1693
3246.61	1751
3245.26	1784.5
3243.9	1840
3242.54	1855
3241.19	1919.5
3239.83	1991.5
3238.48	2028
3237.12	2054.5
3235.76	2108.5
3234.41	2183.5
3233.05	2216.5
3231.69	2279
3230.33	2338
3228.97	2390
3227.61	2439
3226.25	2516.5
3224.89	2523
3223.53	2563.5
3222.17	2607
3220.81	2643.5
3219.45	2650.5
3218.09	2720.5
3216.72	2751.5
3215.36	2785.5
3214	2850.5
3212.63	2849
3211.27	2842
3209.91	2880
3208.54	2919
3207.18	2898.5
3205.81	2913
3204.45	2907.5
3203.08	2954.5
3201.71	2992.5
3200.35	2990.5
3198.98	3028
3197.61	3014.5
3196.25	3046
3194.88	3055.5
3193.51	3059
3192.14	3103
3190.77	3072.5
3189.4	3123.5
3188.03	3149.5
3186.66	3154.5
3185.29	3194.5
3183.92	3193.5
3182.55	3178
3181.18	3195.5
3179.81	3230.5
3178.44	3303.5
3177.06	3270.5
3175.69	3280.5
3174.32	3302.5
3172.94	3356.5
3171.57	3366.5
3170.2	3376
3168.82	3408
3167.45	3450.5
3166.07	3465
3164.69	3440
3163.32	3496.5
3161.94	3522.5
3160.56	3530
3159.19	3590.5
3157.81	3656
3156.43	3664.5
3155.05	3703.5
3153.67	3714
3152.3	3699
3150.92	3758.5
3149.54	3783
3148.16	3829.5
3146.78	3848
3145.4	3839
3144.01	3820.5
3142.63	3882.5
3141.25	3870.5
3139.87	3931.5
3138.49	3898
3137.1	4015.5
3135.72	4000.5
3134.34	4053
3132.95	4082
3131.57	4109.5
3130.18	4148
3128.8	4144.5
3127.41	4134.5
3126.03	4166
3124.64	4209.5
3123.25	4285.5
3121.87	4298
3120.48	4347
3119.09	4354.5
3117.7	4348
3116.32	4371
3114.93	4438
3113.54	4400.5
3112.15	4396
3110.76	4488.5
3109.37	4452.5
3107.98	4474.5
3106.59	4568.5
3105.2	4557.5
3103.8	4524.5
3102.41	4549.5
3101.02	4590.5
3099.63	4612.5
3098.23	4665.5
3096.84	4651.5
3095.45	4652.5
3094.05	4705
3092.66	4706
3091.26	4715.5
3089.87	4737
3088.47	4745
3087.08	4750
3085.68	4740.5
3084.28	4787.5
3082.89	4820.5
3081.49	4803
3080.09	4801
3078.69	4836.5
3077.3	4835.5
3075.9	4854.5
3074.5	4845.5
3073.1	4885.5
3071.7	4891.5
3070.3	4938
3068.9	4907.5
3067.5	4918
3066.09	4889
3064.69	4934.5
3063.29	4926
3061.89	4993.5
3060.48	4987
3059.08	5003.5
3057.68	4971.5
3056.27	5024
3054.87	5002
3053.46	5064
3052.06	5042
3050.65	5119
3049.25	5094.5
3047.84	5087.5
3046.44	5107
3045.03	5153
3043.62	5180
3042.21	5193.5
3040.81	5215
3039.4	5245.5
3037.99	5244
3036.58	5226.5
3035.17	5270.5
3033.76	5277
3032.35	5298.5
3030.94	5353.5
3029.53	5290
3028.12	5370.5
3026.71	5313.5
3025.29	5362.5
3023.88	5336.5
3022.47	5382
3021.06	5333
3019.64	5323.5
3018.23	5409.5
3016.82	5390.5
3015.4	5408
3013.99	5389.5
3012.57	5407.5
3011.15	5417.5
3009.74	5423
3008.32	5441.5
3006.91	5422.5
3005.49	5491
3004.07	5505
3002.65	5556
3001.24	5541.5
2999.82	5585
2998.4	5568.5
2996.98	5585
2995.56	5575
2994.14	5622.5
2992.72	5609
2991.3	5699.5
2989.88	5719
2988.46	5798.5
2987.03	5758
2985.61	5824
2984.19	5827
2982.77	5871
2981.34	5904.5
2979.92	5924
2978.49	5946
2977.07	5978.5
2975.65	6004
2974.22	6034.5
2972.79	6082
2971.37	6092
2969.94	6108
2968.52	6149.5
2967.09	6166
2965.66	6137
2964.23	6199
2962.81	6213.5
2961.38	6259
2959.95	6300
2958.52	6240
2957.09	6263
2955.66	6270.5
2954.23	6305.5
2952.8	6320.5
2951.37	6371.5
2949.94	6329.5
2948.5	6326.5
2947.07	6321.5
2945.64	6315
2944.21	6379.5
2942.77	6382.5
2941.34	6375.5
2939.91	6402.5
2938.47	6443
2937.04	6479.5
2935.6	6485.5
2934.17	6473.5
2932.73	6525
2931.29	6552.5
2929.86	6576.5
2928.42	6633.5
2926.98	6591.5
2925.55	6640.5
2924.11	6619
2922.67	6670
2921.23	6633.5
2919.79	6696.5
2918.35	6606
2916.91	6658.5
2915.47	6642.5
2914.03	6662.5
2912.59	6679.5
2911.15	6747.5
2909.71	6801
2908.26	6761.5
2906.82	6828.5
2905.38	6777
2903.94	6790
2902.49	6791
2901.05	6825.5
2899.6	6861
2898.16	6879
2896.71	6879.5
2895.27	6838
2893.82	6912
2892.38	6883
2890.93	6845.5
2889.48	6903
2888.03	6855
2886.59	6878.5
2885.14	6938
2883.69	6886
2882.24	6962.5
2880.79	6946
2879.34	6949.5
2877.89	6984
2876.44	6951.5
2874.99	7004.5
2873.54	6974
2872.09	7025.5
2870.64	6960.5
2869.18	6982.5
2867.73	6978.5
2866.28	7031.5
2864.83	6992
2863.37	7047.5
2861.92	7065.5
2860.46	7065
2859.01	7034.5
2857.55	7155.5
2856.1	7076
2854.64	7111.5
2853.19	7093
2851.73	7052.5
2850.27	7059.5
2848.81	7135.5
2847.36	7119
2845.9	7042.5
2844.44	7035
2842.98	7006.5
2841.52	7056
2840.06	7035
2838.6	7066.5
2837.14	6980
2835.68	7013
2834.22	6936.5
2832.76	6929
2831.3	6955.5
2829.83	6949.5
2828.37	6939.5
2826.91	6958
2825.44	6926
2823.98	7017
2822.52	6915
2821.05	6944
2819.59	6905.5
2818.12	6924.5
2816.66	6857.5
2815.19	6875
2813.72	6801.5
2812.26	6776.5
2810.79	6842.5
2809.32	6814.5
2807.85	6808.5
2806.38	6782
2804.92	6790.5
2803.45	6811
2801.98	6800
2800.51	6776
2799.04	6750.5
2797.57	6742.5
2796.1	6783
2794.62	6694
2793.15	6745
2791.68	6722.5
2790.21	6711.5
2788.73	6721.5
2787.26	6759.5
2785.79	6714
2784.31	6727.5
2782.84	6701
2781.36	6733.5
2779.89	6722.5
2778.41	6665
2776.94	6757
2775.46	6680
2773.99	6771.5
2772.51	6745.5
2771.03	6761
2769.55	6777
2768.07	6754.5
2766.6	6787
2765.12	6823.5
2763.64	6732.5
2762.16	6744
2760.68	6762.5
2759.2	6794.5
2757.72	6719.5
2756.24	6747
2754.75	6749
2753.27	6752.5
2751.79	6723.5
2750.31	6741.5
2748.82	6688
2747.34	6732.5
2745.86	6739
2744.37	6694
2742.89	6749
2741.4	6697
2739.92	6748.5
2738.43	6721
2736.94	6721.5
2735.46	6752.5
2733.97	6713.5
2732.48	6710
2731	6726.5
2729.51	6696
2728.02	6670
2726.53	6756.5
2725.04	6715
2723.55	6686
2722.06	6696
2720.57	6718.5
2719.08	6742.5
2717.59	6715
2716.1	6657.5
2714.61	6693
2713.11	6652
2711.62	6712
2710.13	6710.5
2708.64	6645.5
2707.14	6691.5
2705.65	6738.5
2704.15	6640.5
2702.66	6635.5
2701.16	6659.5
2699.67	6656.5
2698.17	6635.5
2696.67	6626.5
2695.18	6612.5
2693.68	6583
2692.18	6643
2690.69	6600
2689.19	6582
2687.69	6546.5
2686.19	6581
2684.69	6578
2683.19	6538
2681.69	6521.5
2680.19	6473
2678.69	6524
2677.19	6444.5
2675.68	6460
2674.18	6424
2672.68	6457
2671.18	6453
2669.67	6438
2668.17	6426.5
2666.66	6406
2665.16	6426
2663.66	6427.5
2662.15	6380
2660.64	6336.5
2659.14	6353
2657.63	6355.5
2656.13	6320.5
2654.62	6291.5
2653.11	6295
2651.6	6352.5
2650.09	6292.5
2648.58	6345
2647.08	6352.5
2645.57	6258
2644.06	6293.5
2642.55	6277
2641.04	6256
2639.52	6285
2638.01	6234
2636.5	6218
2634.99	6194
2633.48	6167.5
2631.96	6141.5
2630.45	6113.5
2628.94	6136.5
2627.42	6101.5
2625.91	6127.5
2624.39	6116.5
2622.88	6144
2621.36	6139
2619.85	6139
2618.33	6129.5
2616.81	6121
2615.3	6096.5
2613.78	6093
2612.26	6041
2610.74	6092
2609.22	6110.5
2607.7	6027
2606.18	6000
2604.66	5969
2603.14	5956
2601.62	5904.5
2600.1	5917.5
2598.58	5842
2597.06	5846
2595.54	5886.5
2594.01	5835
2592.49	5809.5
2590.97	5824.5
2589.44	5860
2587.92	5828
2586.39	5815.5
2584.87	5844
2583.34	5769
2581.82	5779.5
2580.29	5801.5
2578.76	5745.5
2577.24	5748.5
2575.71	5735
2574.18	5787
2572.65	5790
2571.13	5745
2569.6	5768
2568.07	5745
2566.54	5766.5
2565.01	5786.5
2563.48	5714.5
2561.95	5722
2560.42	5655.5
2558.88	5656
2557.35	5622.5
2555.82	5655.5
2554.29	5597
2552.75	5587
2551.22	5585.5
2549.69	5620
2548.15	5584.5
2546.62	5530.5
2545.08	5590.5
2543.55	5564
2542.01	5498.5
2540.47	5479
2538.94	5538
2537.4	5460
2535.86	5465
2534.33	5438
2532.79	5457
2531.25	5400
2529.71	5361
2528.17	5397.5
2526.63	5406.5
2525.09	5392.5
2523.55	5334
2522.01	5352
2520.47	5324
2518.92	5335
2517.38	5279
2515.84	5320.5
2514.3	5300
2512.75	5286
2511.21	5266
2509.67	5279.5
2508.12	5219.5
2506.58	5182
2505.03	5180.5
2503.49	5184.5
2501.94	5138.5
2500.39	5143
2498.85	5180.5
2497.3	5096.5
2495.75	5049.5
2494.2	5127
2492.65	5083.5
2491.11	5024
2489.56	5017.5
2488.01	5013
2486.46	5010
2484.91	5003.5
2483.36	4965.5
2481.8	4959.5
2480.25	4965.5
2478.7	4954
2477.15	4952
2475.6	4914
2474.04	4834.5
2472.49	4881
2470.93	4839
2469.38	4850.5
2467.83	4795
2466.27	4769
2464.71	4711.5
2463.16	4747.5
2461.6	4713
2460.05	4671
2458.49	4682
2456.93	4650
2455.37	4668.5
2453.81	4601.5
2452.26	4620
2450.7	4581
2449.14	4538
2447.58	4520.5
2446.02	4476.5
2444.46	4506
2442.9	4500
2441.33	4499
2439.77	4498
2438.21	4481.5
2436.65	4453.5
2435.08	4465.5
2433.52	4401
2431.96	4428
2430.39	4405.5
2428.83	4433
2427.26	4404
2425.7	4395
2424.13	4349
2422.56	4393
2421	4334.5
2419.43	4360.5
2417.86	4343
2416.3	4296.5
2414.73	4260
2413.16	4258.5
2411.59	4268
2410.02	4236
2408.45	4262
2406.88	4281
2405.31	4311
2403.74	4285
2402.17	4304
2400.6	4277.5
2399.02	4206.5
2397.45	4255
2395.88	4210
2394.3	4211.5
2392.73	4176
2391.16	4158
2389.58	4149
2388.01	4143.5
2386.43	4160.5
2384.86	4159
2383.28	4121
2381.7	4160
2380.13	4155
2378.55	4125.5
2376.97	4112.5
2375.39	4105
2373.81	4088
2372.23	4037.5
2370.65	4026
2369.07	4026
2367.49	4028.5
2365.91	4064
2364.33	4033.5
2362.75	4026.5
2361.17	4011
2359.59	3958.5
2358.01	3953.5
2356.42	3958
2354.84	3964.5
2353.25	3990
2351.67	3984
2350.09	4018
2348.5	3932
2346.92	3963
2345.33	3974.5
2343.74	3887.5
2342.16	3962
2340.57	3952
2338.98	3879.5
2337.39	3864.5
2335.81	3893.5
2334.22	3882
2332.63	3870
2331.04	3869
2329.45	3834.5
2327.86	3875.5
2326.27	3831
2324.68	3836
2323.09	3793
2321.49	3814.5
2319.9	3800
2318.31	3785
2316.72	3733
2315.12	3742.5
2313.53	3682.5
2311.93	3706.5
2310.34	3697
2308.74	3674
2307.15	3695.5
2305.55	3656
2303.96	3644
2302.36	3629.5
2300.76	3610.5
2299.17	3593
2297.57	3576.5
2295.97	3608
2294.37	3564
2292.77	3579
2291.17	3534
2289.57	3494
2287.97	3525.5
2286.37	3466
2284.77	3483
2283.17	3445.5
2281.57	3472
2279.96	3479.5
2278.36	3477.5
2276.76	3527
2275.15	3446.5
2273.55	3427.5
2271.95	3436
2270.34	3432
2268.74	3411.5
2267.13	3402
2265.52	3368.5
2263.92	3358.5
2262.31	3327
2260.7	3311.5
2259.1	3345
2257.49	3277.5
2255.88	3321
2254.27	3300
2252.66	3313.5
2251.05	3305.5
2249.44	3275.5
2247.83	3310.5
2246.22	3316.5
2244.61	3281
2243	3317
2241.39	3282
2239.77	3299
2238.16	3230
2236.55	3277
2234.93	3237
2233.32	3240
2231.7	3206
2230.09	3191
2228.47	3133.5
2226.86	3157
2225.24	3140
2223.63	3135.5
2222.01	3125.5
2220.39	3100
2218.77	3107.5
2217.16	3070.5
2215.54	3076.5
2213.92	3057.5
2212.3	3015.5
2210.68	3049.5
2209.06	2992
2207.44	2979
2205.82	2993
2204.19	3009.5
2202.57	2982.5
2200.95	2946.5
2199.33	2939.5
2197.7	2983
2196.08	2906.5
2194.46	2947
2192.83	2926.5
2191.21	2936
2189.58	2875.5
2187.96	2905.5
2186.33	2901.5
2184.7	2898
2183.08	2886.5
2181.45	2860
2179.82	2852
2178.19	2837.5
2176.57	2808.5
2174.94	2819
2173.31	2808
2171.68	2853.5
2170.05	2779.5
2168.42	2772.5
2166.79	2801
2165.16	2774.5
2163.52	2748.5
2161.89	2764
2160.26	2720
2158.63	2687
2156.99	2717
2155.36	2680
2153.73	2668
2152.09	2705.5
2150.46	2689
2148.82	2695.5
2147.18	2633.5
2145.55	2658.5
2143.91	2648
2142.27	2626
2140.64	2623
2139	2619
2137.36	2583.5
2135.72	2580
2134.08	2579.5
2132.44	2611
2130.8	2562.5
2129.16	2515
2127.52	2546
2125.88	2466
2124.24	2489.5
2122.6	2492.5
2120.95	2475
2119.31	2437.5
2117.67	2455.5
2116.02	2405
2114.38	2421
2112.74	2413.5
2111.09	2399
2109.45	2381
2107.8	2434.5
2106.15	2409
2104.51	2363.5
2102.86	2358
2101.21	2356.5
2099.56	2317
2097.92	2323.5
2096.27	2326
2094.62	2314.5
2092.97	2325.5
2091.32	2323
2089.67	2321
2088.02	2332
2086.37	2303.5
2084.72	2336
2083.06	2313.5
2081.41	2304
2079.76	2263
2078.1	2261
2076.45	2267
2074.8	2260.5
2073.14	2257
2071.49	2254.5
2069.83	2278.5
2068.18	2259
2066.52	2251.5
2064.86	2237.5
2063.21	2208
2061.55	2200.5
2059.89	2191.5
2058.23	2204
2056.57	2189.5
2054.92	2189
2053.26	2191
2051.6	2186
2049.94	2173
2048.27	2185
2046.61	2182
2044.95	2159
2043.29	2154.5
2041.63	2162.5
2039.97	2124
2038.3	2116.5
2036.64	2134
2034.97	2086.5
2033.31	2072
2031.64	2074.5
2029.98	2077
2028.31	2066.5
2026.65	2007.5
2024.98	2023
2023.31	1984.5
2021.65	2004
2019.98	1978
2018.31	2013
2016.64	1953
2014.97	1982.5
2013.3	1979
2011.63	1977.5
2009.96	1950.5
2008.29	1937
2006.62	1914.5
2004.95	1951.5
2003.28	1906.5
2001.6	1894.5
1999.93	1933.5
1998.26	1908.5
1996.58	1922
1994.91	1894.5
1993.24	1894
1991.56	1889
1989.89	1883
1988.21	1873.5
1986.53	1875
1984.86	1820
1983.18	1835
1981.5	1816
1979.82	1840
1978.15	1836.5
1976.47	1815.5
1974.79	1799
1973.11	1821
1971.43	1818
1969.75	1790.5
1968.07	1783
1966.38	1766
1964.7	1758.5
1963.02	1739
1961.34	1755.5
1959.66	1751
1957.97	1726
1956.29	1723
1954.6	1716.5
1952.92	1687
1951.23	1714.5
1949.55	1685
1947.86	1676.5
1946.18	1670
1944.49	1657.5
1942.8	1647.5
1941.11	1647.5
1939.43	1661.5
1937.74	1628
1936.05	1630.5
1934.36	1622.5
1932.67	1637
1930.98	1588.5
1929.29	1595.5
1927.6	1580
1925.91	1555.5
1924.21	1580
1922.52	1593
1920.83	1554
1919.14	1557
1917.44	1585
1915.75	1534
1914.05	1548
1912.36	1534
1910.66	1521
1908.97	1550
1907.27	1519.5
1905.58	1514.5
1903.88	1505.5
1902.18	1523.5
1900.48	1506
1898.79	1495.5
1897.09	1511.5
1895.39	1468.5
1893.69	1470
1891.99	1458
1890.29	1440.5
1888.59	1436.5
1886.89	1432.5
1885.18	1398.5
1883.48	1402
1881.78	1397.5
1880.08	1377
1878.37	1395
1876.67	1368
1874.96	1364.5
1873.26	1369
1871.55	1360.5
1869.85	1360.5
1868.14	1340.5
1866.44	1343.5
1864.73	1327
1863.02	1348.5
1861.32	1313
1859.61	1320.5
1857.9	1310.5
1856.19	1320
1854.48	1317.5
1852.77	1323
1851.06	1280.5
1849.35	1291.5
1847.64	1289.5
1845.93	1279
1844.21	1275.5
1842.5	1246
1840.79	1273
1839.08	1270.5
1837.36	1282
1835.65	1236
1833.93	1259
1832.22	1242
1830.5	1219
1828.79	1223.5
1827.07	1208.5
1825.36	1206
1823.64	1198
1821.92	1186
1820.2	1189.5
1818.48	1194
1816.77	1172
1815.05	1184
1813.33	1177.5
1811.61	1168.5
1809.89	1166
1808.16	1157
1806.44	1126.5
1804.72	1149.5
1803	1138
1801.28	1139
1799.55	1121
1797.83	1116.5
1796.11	1117.5
1794.38	1083.5
1792.66	1121
1790.93	1099
1789.21	1100
1787.48	1095
1785.75	1062.5
1784.03	1073.5
1782.3	1058
1780.57	1082.5
1778.84	1067
1777.11	1053.5
1775.38	1047
1773.66	1054.5
1771.93	1063
1770.19	1055
1768.46	1049.5
1766.73	1054.5
1765	1030.5
1763.27	1021
1761.54	1061
1759.8	1052.5
1758.07	1076
1756.34	1052.5
1754.6	1082
1752.87	1058
1751.13	1083
1749.4	1090.5
1747.66	1069.5
1745.92	1072
1744.19	1057
1742.45	1063.5
1740.71	1075.5
1738.97	1062.5
1737.23	1040
1735.49	1036.5
1733.75	1028
1732.01	1033
1730.27	991.5
1728.53	1003.5
1726.79	968
1725.05	985
1723.31	981.5
1721.57	968
1719.82	966.5
1718.08	956.5
1716.34	945.5
1714.59	960
1712.85	949
1711.1	946
1709.36	942
1707.61	920.5
1705.86	908.5
1704.12	922
1702.37	920.5
1700.62	916.5
1698.87	894.5
1697.12	893
1695.37	913.5
1693.62	889
1691.87	874.5
1690.12	864
1688.37	865.5
1686.62	863
1684.87	844.5
1683.12	853.5
1681.36	882
1679.61	866
1677.86	857
1676.1	873
1674.35	881.5
1672.59	866.5
1670.84	889
1669.08	879.5
1667.33	920.5
1665.57	941.5
1663.81	977
1662.06	1009.5
1660.3	1052.5
1658.54	1068.5
1656.78	1023.5
1655.02	1040
1653.26	1007.5
1651.5	967
1649.74	962.5
1647.98	890.5
1646.22	875.5
1644.46	875
1642.7	822
1640.93	838
1639.17	838
1637.41	826.5
1635.64	795.5
1633.88	780
1632.11	799
1630.35	775.5
1628.58	790
1626.81	771
1625.05	763.5
1623.28	766
1621.51	752
1619.75	751
1617.98	747.5
1616.21	744.5
1614.44	768
1612.67	747.5
1610.9	735.5
1609.13	731.5
1607.36	722
1605.58	719
1603.81	729
1602.04	730
1600.27	716
1598.49	715
1596.72	719.5
1594.95	727
1593.17	717.5
1591.4	716
1589.62	717
1587.84	701.5
1586.07	704.5
1584.29	700
1582.51	701
1580.74	689
1578.96	709
1577.18	708.5
1575.4	695.5
1573.62	678.5
1571.84	695.5
1570.06	689.5
1568.28	670.5
1566.5	673.5
1564.72	659
1562.93	685.5
1561.15	667.5
1559.37	662.5
1557.58	689
1555.8	676.5
1554.02	672
1552.23	650
1550.45	655.5
1548.66	646.5
1546.87	648
1545.09	630.5
1543.3	644.5
1541.51	620.5
1539.72	622.5
1537.94	634
1536.15	608
1534.36	617.5
1532.57	622.5
1530.78	619.5
1528.99	622
1527.2	596
1525.4	600.5
1523.61	618.5
1521.82	604
1520.03	593
1518.23	599.5
1516.44	619.5
1514.65	607
1512.85	604
1511.06	606.5
1509.26	609.5
1507.46	589.5
1505.67	602
1503.87	609
1502.07	611.5
1500.28	599
1498.48	604.5
1496.68	603
1494.88	601
1493.08	596.5
1491.28	620
1489.48	630
1487.68	618
1485.88	638
1484.08	644.5
1482.27	617.5
1480.47	640
1478.67	658
1476.86	673.5
1475.06	709
1473.25	741.5
1471.45	741
1469.64	786.5
1467.84	802.5
1466.03	831.5
1464.23	868.5
1462.42	893.5
1460.61	927.5
1458.8	937.5
1456.99	952.5
1455.18	983.5
1453.37	994.5
1451.56	1034
1449.75	1049
1447.94	1084
1446.13	1094
1444.32	1133.5
1442.51	1138
1440.7	1146.5
1438.88	1110
1437.07	1082
1435.26	989
1433.44	929
1431.63	864
1429.81	787.5
1427.99	768
1426.18	703.5
1424.36	695
1422.54	650.5
1420.73	642.5
1418.91	631.5
1417.09	620
1415.27	603.5
1413.45	577.5
1411.63	570
1409.81	560
1407.99	535.5
1406.17	543
1404.35	532.5
1402.53	513.5
1400.7	519.5
1398.88	510.5
1397.06	508
1395.23	493
1393.41	504
1391.58	521
1389.76	503.5
1387.93	516
1386.11	490
1384.28	474
1382.45	485.5
1380.62	497
1378.8	493.5
1376.97	496.5
1375.14	490
1373.31	500
1371.48	510.5
1369.65	499
1367.82	501.5
1365.99	513
1364.16	488
1362.32	497.5
1360.49	493
1358.66	485
1356.82	482
1354.99	483
1353.16	486
1351.32	513.5
1349.48	506
1347.65	491
1345.81	484
1343.98	491
1342.14	498.5
1340.3	486
1338.46	472
1336.62	483.5
1334.79	500
1332.95	500
1331.11	506
1329.27	530
1327.42	546
1325.58	559.5
1323.74	583
1321.9	595.5
1320.06	601.5
1318.21	620
1316.37	639
1314.53	652
1312.68	689
1310.84	717.5
1308.99	770.5
1307.15	797
1305.3	833
1303.45	841
1301.61	833.5
1299.76	848.5
1297.91	833
1296.06	767
1294.21	730.5
1292.36	669
1290.51	636
1288.66	640.5
1286.81	616
1284.96	610.5
1283.11	601
1281.26	594
1279.4	599
1277.55	593.5
1275.7	615
1273.84	607.5
1271.99	620.5
1270.13	629
1268.28	616.5
1266.42	598
1264.56	616.5
1262.71	610.5
1260.85	606
1258.99	568
1257.13	556
1255.27	540
1253.41	519.5
1251.56	520.5
1249.7	517.5
1247.83	487
1245.97	476
1244.11	467
1242.25	446
1240.39	444.5
1238.52	436
1236.66	438.5
1234.8	438.5
1232.93	415
1231.07	428
1229.2	402
1227.34	394.5
1225.47	409.5
1223.6	419.5
1221.74	405
1219.87	410.5
1218	393.5
1216.13	396
1214.26	389.5
1212.39	377.5
1210.53	379
1208.65	386
1206.78	376.5
1204.91	368
1203.04	368.5
1201.17	374.5
1199.3	377
1197.42	381
1195.55	390
1193.68	374.5
1191.8	372
1189.93	364
1188.05	373
1186.17	365
1184.3	369.5
1182.42	366
1180.54	360
1178.67	379
1176.79	362.5
1174.91	386.5
1173.03	374.5
1171.15	364
1169.27	356
1167.39	358
1165.51	357.5
1163.63	341
1161.75	343.5
1159.86	361
1157.98	364
1156.1	362
1154.21	363
1152.33	389.5
1150.44	354
1148.56	362.5
1146.67	373
1144.79	372
1142.9	369
1141.01	371.5
1139.12	381
1137.24	381
1135.35	402.5
1133.46	437
1131.57	454
1129.68	456
1127.79	474
1125.9	468
1124.01	472.5
1122.12	453
1120.22	442.5
1118.33	448
1116.44	437
1114.54	431
1112.65	449
1110.75	447
1108.86	435
1106.96	446
1105.07	456.5
1103.17	457.5
1101.27	469
1099.38	484
1097.48	505
1095.58	531.5
1093.68	532
1091.78	553
1089.88	575
1087.98	586
1086.08	581.5
1084.18	597
1082.28	594.5
1080.38	595
1078.47	577
1076.57	556
1074.67	577.5
1072.76	565.5
1070.86	560
1068.95	563
1067.05	589
1065.14	615
1063.24	600.5
1061.33	572
1059.42	512
1057.51	500
1055.6	474
1053.7	452.5
1051.79	445
1049.88	442.5
1047.97	432
1046.06	446
1044.14	426.5
1042.23	452
1040.32	441.5
1038.41	433.5
1036.5	444
1034.58	429
1032.67	410.5
1030.75	437.5
1028.84	441.5
1026.92	416.5
1025.01	425
1023.09	427
1021.17	423
1019.26	417
1017.34	428
1015.42	405
1013.5	409
1011.58	408
1009.66	413
1007.74	389
1005.82	414
1003.9	388
1001.98	398
1000.06	402.5
998.134	402.5
996.212	448
994.288	417.5
992.364	431.5
990.44	444
988.515	451
986.589	456
984.663	491
982.737	494
980.81	504
978.883	524.5
976.955	528.5
975.027	534.5
973.098	542
971.169	554.5
969.239	540.5
967.308	530
965.378	545
963.447	543.5
961.516	548
959.583	529.5
957.65	536.5
955.718	543.5
953.784	564.5
951.85	557
949.916	556
947.981	565.5
946.045	571
944.109	588
942.173	597.5
940.236	593
938.298	568.5
936.36	567.5
934.422	580
932.484	548
930.544	523
928.604	502
926.664	490.5
924.724	463.5
922.782	467
920.84	479.5
918.898	463.5
916.955	452
915.012	455.5
913.068	458.5
911.124	454
909.18	470.5
907.235	456.5
905.289	450
903.343	453
901.397	459.5
899.45	465.5
897.502	474
895.554	483.5
893.605	515
891.657	510.5
889.707	510.5
887.758	528
885.807	519
883.856	508
881.905	495
879.953	514.5
878.001	521
876.048	551
874.094	550.5
872.14	564
870.186	527
868.232	523
866.276	524.5
864.321	520
862.365	503.5
860.408	485.5
858.451	497
856.493	492
854.535	505.5
852.576	509.5
850.617	494
848.658	487.5
846.698	489.5
844.737	499
842.776	482
840.814	469
838.852	476.5
836.89	472
834.927	469.5
832.963	437.5
830.999	445
829.035	414
827.07	416.5
825.105	406
823.139	393
821.172	375.5
819.206	388
817.238	373
815.27	367
813.301	367
811.333	356.5
809.363	342.5
807.394	346.5
805.424	326
803.453	322.5
801.482	317.5
799.509	306
797.538	327
795.565	304
793.592	298.5
791.618	304.5
789.643	298.5
787.669	278.5
785.693	289.5
783.718	306.5
781.742	287
779.765	283.5
777.788	276
775.811	285.5
773.832	289
771.853	295
769.875	289
767.895	286.5
765.915	279
763.934	288.5
761.953	273.5
759.972	294
757.99	290
756.007	293.5
754.024	280.5
752.041	288.5
750.056	293
748.072	284.5
746.087	295.5
744.102	290
742.116	275.5
740.13	298
738.143	293.5
736.155	301
734.167	297
732.179	305.5
730.19	297.5
728.2	307
726.21	314.5
724.22	295.5
722.229	296
720.237	287.5
718.246	291.5
716.253	288.5
714.26	283.5
712.267	267
710.273	284.5
708.279	277
706.284	268
704.289	274
702.293	273.5
700.296	254
698.3	265
696.303	266
694.305	277
692.307	272
690.307	263
688.308	265.5
686.309	283
684.308	279
682.308	266.5
680.306	277
678.304	273.5
676.302	273
674.3	265.5
672.296	269.5
670.293	279.5
668.289	291.5
666.284	271.5
664.278	292
662.273	279
660.266	277
658.26	274
656.252	273.5
654.244	288.5
652.237	274.5
650.227	283
648.218	291.5
646.209	283
644.198	279
642.188	294.5
640.177	309.5
638.165	300.5
636.153	297
634.14	296.5
632.128	282.5
630.113	316.5
628.099	300.5
626.085	299.5
624.07	302
622.054	304
620.038	319.5
618.021	324
616.004	326.5
613.986	326.5
611.968	334
609.949	326
607.93	328.5
605.911	316
603.891	314.5
601.87	319
599.848	321.5
597.827	317.5
595.805	306.5
593.782	319.5
591.759	302
589.735	315.5
587.711	296.5
585.687	304
583.661	305
581.636	279
579.609	300
577.583	301
575.555	309.5
573.527	306
571.5	301
569.471	311
567.441	316.5
565.412	303
563.382	303
561.351	311
559.32	340.5
557.289	318
555.257	338
553.223	346
551.19	358
549.157	361
547.122	387
545.088	392
543.053	415
541.017	430.5
538.981	499
536.943	572
534.907	690.5
532.869	900.5
530.831	1234
528.792	1853
526.752	2836.5
524.713	4134
522.673	5158
520.632	5093
518.591	4152.5
516.549	2961
514.507	2016
512.464	1319
510.42	933.5
508.377	705
506.332	592
504.288	530.5
502.242	471
500.196	432.5
498.15	433.5
496.104	447.5
494.056	407.5
492.008	395.5
489.96	406.5
487.911	382
485.862	380
483.812	384
481.761	364
479.71	381
477.659	378.5
475.607	368.5
473.555	386
471.502	379.5
469.448	368.5
467.395	357.5
465.34	354
463.285	361.5
461.23	351
459.174	371
457.118	365.5
455.061	352
453.003	373
450.945	384.5
448.887	379.5
446.828	382
444.768	374
442.708	383.5
440.647	389.5
438.587	410
436.525	392.5
434.463	408
432.4	400.5
430.337	414
428.274	403.5
426.21	425
424.145	407.5
422.079	400.5
420.014	406
417.948	398.5
415.882	413.5
413.814	391
411.746	427
409.679	418
407.609	437.5
405.54	418
403.47	424.5
401.401	437.5
399.329	424
397.258	416
395.187	417
393.114	413.5
391.041	435.5
388.968	433.5
386.895	429
384.82	440
382.745	430
380.67	439.5
378.594	445
376.517	430.5
374.44	433.5
372.363	448.5
370.286	433
368.207	461
366.128	436.5
364.049	459
361.969	448.5
359.888	453
357.807	462.5
355.725	491.5
353.643	477.5
351.561	455.5
349.477	469.5
347.394	466.5
345.31	477.5
343.226	476
341.141	469.5
339.055	482
336.968	481.5
334.882	490.5
332.795	489
330.707	515
328.618	508
326.53	519
324.44	516.5
322.351	535
320.26	564.5
318.17	573.5
316.078	577
313.987	610
311.895	622.5
309.802	634.5
307.708	669
305.614	679
303.52	676.5
301.425	686.5
299.329	659
297.233	633
295.137	623.5
293.039	623.5
290.942	618.5
288.844	608
286.745	614
284.647	606.5
282.546	605
280.446	599.5
278.346	596.5
276.245	607.5
274.143	597.5
272.041	598
269.939	605.5
267.835	607
265.731	615
263.627	623
261.522	645.5
259.417	620.5
257.311	621.5
255.204	633
253.098	631
250.99	649
248.882	668
246.774	654
244.664	653.5
242.555	669.5
240.445	674.5
238.334	696
236.223	660.5
234.112	686
232	710.5
229.888	721.5
227.775	698
225.661	701
223.546	713.5
221.431	715
219.316	723
217.201	728
215.084	725
212.967	735.5
210.85	741
208.732	739.5
206.614	730.5
204.495	729.5
202.375	737.5
200.256	720
198.135	718.5
196.014	733
193.893	737
191.771	733.5
189.648	729.5
187.525	737.5
185.401	732.5
183.277	748.5
181.152	746.5
179.027	727
176.901	739.5
174.775	757
172.648	758
170.521	760
168.393	776
166.265	775.5
164.136	797.5
162.007	808
159.876	836
157.746	850.5
155.615	842
153.483	856.5
151.351	870
149.219	918.5
147.086	918.5
144.952	948
142.818	963
140.684	1010.5
138.548	1032
136.413	1052
134.276	1068
132.139	1107.5
130.002	1132.5
127.864	1166.5
125.725	1215
123.587	1261.5
121.447	1330
119.307	1343
117.166	1391
115.026	1441
112.885	1502.5
110.743	1553.5
108.6	1568
106.456	1595.5
104.313	1584.5
102.169	1584.5
100.023	1513.5
97.8789	1429
95.7328	1292.5
93.5869	1125.5
91.4392	970.5
89.2919	801
87.1447	634
84.9959	492
