3528.51	166.5
3527.23	176.5
3525.95	160
3524.67	189.5
3523.39	213
3522.1	191
3520.82	204
3519.54	186
3518.26	213.5
3516.97	202
3515.69	221
3514.4	207
3513.12	178
3511.84	226
3510.55	197
3509.26	212
3507.98	208
3506.69	223
3505.41	195.5
3504.12	206
3502.83	201
3501.54	236
3500.26	203
3498.97	208
3497.68	209
3496.39	229.5
3495.1	259
3493.81	215
3492.52	240
3491.23	236
3489.94	198
3488.65	245.5
3487.36	237
3486.07	236.5
3484.78	231
3483.49	241.5
3482.19	261.5
3480.9	242.5
3479.61	263.5
3478.31	264
3477.02	279
3475.73	252
3474.43	277
3473.14	286.5
3471.84	279.5
3470.54	291.5
3469.25	269
3467.95	261.5
3466.66	290
3465.36	275
3464.06	315
3462.76	294
3461.46	303
3460.17	285
3458.87	317
3457.57	306
3456.27	300
3454.97	298
3453.67	308
3452.37	315
3451.07	304.5
3449.77	311.5
3448.47	309.5
3447.16	314
3445.86	330
3444.56	323.5
3443.26	362
3441.95	353.5
3440.65	337
3439.35	347
3438.04	353
3436.74	357
3435.43	373
3434.13	389
3432.82	377
3431.52	388
3430.21	409.5
3428.9	402.5
3427.6	408.5
3426.29	408.5
3424.98	429
3423.67	414.5
3422.36	410
3421.06	420
3419.75	410
3418.44	447
3417.13	480
3415.82	447.5
3414.51	456
3413.2	423
3411.88	484
3410.57	457
3409.26	460
3407.95	461
3406.64	491
3405.32	475
3404.01	486
3402.7	506
3401.38	500
3400.07	502
3398.75	505
3397.44	497
3396.12	496.5
3394.81	518.5
3393.49	494.5
3392.18	484.5
3390.86	541
3389.54	500
3388.23	546
3386.91	546
3385.59	563
3384.27	531
3382.95	558.5
3381.63	552.5
3380.31	579.5
3378.99	568
3377.67	556
3376.35	568.5
3375.03	578
3373.71	564
3372.39	610.5
3371.07	603
3369.75	592.5
3368.42	611.5
3367.1	623.5
3365.78	619
3364.45	637.5
3363.13	605
3361.81	624
3360.48	623
3359.16	636
3357.83	617.5
3356.51	656
3355.18	649
3353.85	610
3352.53	640
3351.2	632
3349.87	640.5
3348.54	663
3347.22	643
3345.89	658
3344.56	672
3343.23	710
3341.9	668
3340.57	660
3339.24	675
3337.91	677
3336.58	697.5
3335.25	694
3333.92	664
3332.58	694
3331.25	717
3329.92	664.5
3328.59	710
3327.25	699.5
3325.92	679
3324.58	719
3323.25	713.5
3321.92	687
3320.58	714
3319.25	725
3317.91	706.5
3316.57	712.5
3315.24	721
3313.9	731
3312.56	680
3311.23	733
3309.89	780.5
3308.55	731
3307.21	734
3305.87	732
3304.53	746
3303.19	760
3301.85	794
3300.51	765
3299.17	792
3297.83	786.5
3296.49	793.5
3295.15	809.5
3293.81	810.5
3292.46	774
3291.12	763
3289.78	783
3288.43	797
3287.09	789.5
3285.75	784
3284.4	782
3283.06	832
3281.71	788.5
3280.37	780
3279.02	795.5
3277.67	810
3276.33	825.5
3274.98	815.5
3273.63	834
3272.28	837.5
3270.94	832
3269.59	828
3268.24	805
3266.89	856.5
3265.54	865
3264.19	859
3262.84	874
3261.49	902.5
3260.14	875
3258.79	921.5
3257.44	921
3256.08	928.5
3254.73	926.5
3253.38	954
3252.03	962
3250.67	976
3249.32	994
3247.96	1005
3246.61	1042
3245.26	1098
3243.9	1080
3242.54	1081
3241.19	1114
3239.83	1149.5
3238.48	1163
3237.12	1257.5
3235.76	1240
3234.41	1265.5
3233.05	1313
3231.69	1303
3230.33	1363
3228.97	1370
3227.61	1442
3226.25	1443.5
3224.89	1513
3223.53	1517.5
3222.17	1561.5
3220.81	1556.5
3219.45	1616
3218.09	1723.5
3216.72	1686
3215.36	1726
3214	1729
3212.63	1755.5
3211.27	1776.5
3209.91	1801
3208.54	1760
3207.18	1823
3205.81	1832.5
3204.45	1839
3203.08	1866
3201.71	1877
3200.35	1911
3198.98	1863
3197.61	1929.5
3196.25	1914
3194.88	1909.5
3193.51	1933.5
3192.14	1941
3190.77	1957.5
3189.4	1929.5
3188.03	1956
3186.66	1960.5
3185.29	1995
3183.92	1988.5
3182.55	2071.5
3181.18	2005.5
3179.81	2087.5
3178.44	2046
3177.06	2047.5
3175.69	2052
3174.32	2100
3172.94	2111
3171.57	2127
3170.2	2140
3168.82	2077
3167.45	2124
3166.07	2167
3164.69	2184.5
3163.32	2134
3161.94	2189
3160.56	2205
3159.19	2218
3157.81	2280
3156.43	2339
3155.05	2311
3153.67	2346
3152.3	2344
3150.92	2332
3149.54	2397
3148.16	2377
3146.78	2435
3145.4	2407.5
3144.01	2395.5
3142.63	2419
3141.25	2544
3139.87	2515
3138.49	2502
3137.1	2504
3135.72	2517
3134.34	2512
3132.95	2610
3131.57	2562
3130.18	2591
3128.8	2626
3127.41	2584
3126.03	2645
3124.64	2732.5
3123.25	2680.5
3121.87	2762
3120.48	2736
3119.09	2723.5
3117.7	2744
3116.32	2771
3114.93	2762.5
3113.54	2813.5
3112.15	2848.5
3110.76	2803.5
3109.37	2778
3107.98	2805
3106.59	2830
3105.2	2807
3103.8	2869.5
3102.41	2877
3101.02	2894
3099.63	2872
3098.23	2880
3096.84	2964
3095.45	2909.5
3094.05	2984.5
3092.66	2948
3091.26	2992
3089.87	2964.5
3088.47	3007
3087.08	3070
3085.68	3038
3084.28	3026
3082.89	3074
3081.49	3098
3080.09	3078
3078.69	3083
3077.3	3115
3075.9	3124.5
3074.5	3089
3073.1	3149
3071.7	3110
3070.3	3078
3068.9	3172.5
3067.5	3132
3066.09	3173
3064.69	3222.5
3063.29	3173.5
3061.89	3242.5
3060.48	3166
3059.08	3172
3057.68	3201.5
3056.27	3252
3054.87	3218
3053.46	3193
3052.06	3181.5
3050.65	3312.5
3049.25	3268
3047.84	3220.5
3046.44	3241
3045.03	3299.5
3043.62	3252
3042.21	3212
3040.81	3315.5
3039.4	3317.5
3037.99	3292
3036.58	3400
3035.17	3400
3033.76	3410
3032.35	3390.5
3030.94	3406
3029.53	3426
3028.12	3341.5
3026.71	3442
3025.29	3398.5
3023.88	3403
3022.47	3411.5
3021.06	3463.5
3019.64	3358.5
3018.23	3421
3016.82	3427
3015.4	3389
3013.99	3455.5
3012.57	3436
3011.15	3497
3009.74	3521
3008.32	3492
3006.91	3540.5
3005.49	3497.5
3004.07	3569.5
3002.65	3496
3001.24	3518.5
2999.82	3570.5
2998.4	3560
2996.98	3548
2995.56	3561.5
2994.14	3650.5
2992.72	3625.5
2991.3	3644.5
2989.88	3679
2988.46	3620
2987.03	3643
2985.61	3698.5
2984.19	3698
2982.77	3704
2981.34	3714
2979.92	3795.5
2978.49	3795.5
2977.07	3815
2975.65	3821.5
2974.22	3799
2972.79	3917.5
2971.37	3864
2969.94	3905
2968.52	3917
2967.09	3883.5
2965.66	3987.5
2964.23	3974
2962.81	3976.5
2961.38	4000.5
2959.95	3961
2958.52	4097
2957.09	4034
2955.66	3992
2954.23	4011
2952.8	4048.5
2951.37	4029
2949.94	4003
2948.5	4115.5
2947.07	4095
2945.64	4096
2944.21	4021
2942.77	4128
2941.34	4114.5
2939.91	4186.5
2938.47	4156.5
2937.04	4168.5
2935.6	4158.5
2934.17	4182
2932.73	4195
2931.29	4223
2929.86	4205
2928.42	4263
2926.98	4241
2925.55	4272
2924.11	4337
2922.67	4390
2921.23	4321.5
2919.79	4327
2918.35	4304
2916.91	4320
2915.47	4339
2914.03	4340
2912.59	4381.5
2911.15	4363
2909.71	4425.5
2908.26	4339
2906.82	4344.5
2905.38	4408
2903.94	4435
2902.49	4463
2901.05	4386
2899.6	4411.5
2898.16	4465
2896.71	4414
2895.27	4466
2893.82	4485
2892.38	4504
2890.93	4405
2889.48	4494
2888.03	4472
2886.59	4472
2885.14	4460
2883.69	4431
2882.24	4494.5
2880.79	4514.5
2879.34	4463
2877.89	4441
2876.44	4454
2874.99	4473
2873.54	4491.5
2872.09	4548
2870.64	4570.5
2869.18	4518.5
2867.73	4533.5
2866.28	4542
2864.83	4524
2863.37	4459.5
2861.92	4512
2860.46	4512
2859.01	4565
2857.55	4538.5
2856.1	4558
2854.64	4525
2853.19	4532.5
2851.73	4560
2850.27	4674
2848.81	4515
2847.36	4557
2845.9	4612
2844.44	4593.5
2842.98	4598.5
2841.52	4585
2840.06	4577
2838.6	4568
2837.14	4573
2835.68	4482
2834.22	4534
2832.76	4462
2831.3	4505
2829.83	4452
2828.37	4432.5
2826.91	4480.5
2825.44	4341.5
2823.98	4387
2822.52	4360
2821.05	4339
2819.59	4327
2818.12	4339.5
2816.66	4318.5
2815.19	4317
2813.72	4305
2812.26	4285.5
2810.79	4311.5
2809.32	4347
2807.85	4297
2806.38	4270.5
2804.92	4308.5
2803.45	4236.5
2801.98	4306
2800.51	4195
2799.04	4225
2797.57	4285.5
2796.1	4262.5
2794.62	4258.5
2793.15	4262
2791.68	4186
2790.21	4223.5
2788.73	4151
2787.26	4169
2785.79	4206.5
2784.31	4210.5
2782.84	4233
2781.36	4152.5
2779.89	4222
2778.41	4221
2776.94	4194
2775.46	4252
2773.99	4198
2772.51	4159.5
2771.03	4198.5
2769.55	4191.5
2768.07	4145.5
2766.6	4251.5
2765.12	4234.5
2763.64	4195.5
2762.16	4185.5
2760.68	4172.5
2759.2	4102
2757.72	4141
2756.24	4145
2754.75	4177.5
2753.27	4177
2751.79	4193
2750.31	4199
2748.82	4181
2747.34	4187.5
2745.86	4192.5
2744.37	4144.5
2742.89	4122.5
2741.4	4175.5
2739.92	4111.5
2738.43	4155
2736.94	4224.5
2735.46	4144
2733.97	4134
2732.48	4187
2731	4177
2729.51	4163
2728.02	4167
2726.53	4150.5
2725.04	4192.5
2723.55	4224
2722.06	4206.5
2720.57	4153
2719.08	4247.5
2717.59	4191.5
2716.1	4178
2714.61	4128.5
2713.11	4142.5
2711.62	4168.5
2710.13	4144
2708.64	4102
2707.14	4088
2705.65	4089.5
2704.15	4131
2702.66	4145.5
2701.16	4059
2699.67	4083.5
2698.17	4097
2696.67	4105
2695.18	4040
2693.68	4120.5
2692.18	4100.5
2690.69	4059
2689.19	4024
2687.69	4002.5
2686.19	4063.5
2684.69	4021
2683.19	4024
2681.69	4020
2680.19	4096
2678.69	3995.5
2677.19	3999.5
2675.68	4073.5
2674.18	4015.5
2672.68	3928.5
2671.18	4015
2669.67	3976.5
2668.17	4006
2666.66	3976
2665.16	3977.5
2663.66	3968
2662.15	3958.5
2660.64	3940.5
2659.14	3955.5
2657.63	3934
2656.13	3958.5
2654.62	3909
2653.11	3953.5
2651.6	3949
2650.09	3915.5
2648.58	3886.5
2647.08	3895
2645.57	3944.5
2644.06	3956.5
2642.55	3918.5
2641.04	3844
2639.52	3894
2638.01	3885.5
2636.5	3855
2634.99	3883
2633.48	3822.5
2631.96	3845
2630.45	3838.5
2628.94	3762
2627.42	3767
2625.91	3844.5
2624.39	3828
2622.88	3781
2621.36	3841.5
2619.85	3796
2618.33	3799.5
2616.81	3851.5
2615.3	3780
2613.78	3743
2612.26	3808
2610.74	3808
2609.22	3774.5
2607.7	3772.5
2606.18	3795.5
2604.66	3709
2603.14	3749
2601.62	3749
2600.1	3726
2598.58	3648
2597.06	3653.5
2595.54	3686.5
2594.01	3601
2592.49	3657
2590.97	3630
2589.44	3693
2587.92	3635
2586.39	3656
2584.87	3623.5
2583.34	3627
2581.82	3677.5
2580.29	3676.5
2578.76	3648.5
2577.24	3611
2575.71	3605.5
2574.18	3591.5
2572.65	3671.5
2571.13	3601.5
2569.6	3578
2568.07	3563.5
2566.54	3595
2565.01	3563
2563.48	3565.5
2561.95	3559.5
2560.42	3561
2558.88	3482
2557.35	3517
2555.82	3496
2554.29	3492
2552.75	3488.5
2551.22	3462.5
2549.69	3491
2548.15	3416
2546.62	3517
2545.08	3428.5
2543.55	3458.5
2542.01	3388
2540.47	3455
2538.94	3430.5
2537.4	3379
2535.86	3377
2534.33	3341
2532.79	3367.5
2531.25	3388.5
2529.71	3346
2528.17	3355.5
2526.63	3332
2525.09	3300
2523.55	3328.5
2522.01	3275
2520.47	3272.5
2518.92	3259.5
2517.38	3235.5
2515.84	3295
2514.3	3259
2512.75	3213.5
2511.21	3241.5
2509.67	3224
2508.12	3207
2506.58	3191.5
2505.03	3207
2503.49	3199
2501.94	3188
2500.39	3135
2498.85	3133.5
2497.3	3156.5
2495.75	3173
2494.2	3050
2492.65	3053.5
2491.11	3122
2489.56	3062
2488.01	3086
2486.46	3054.5
2484.91	3086
2483.36	3009
2481.8	3042.5
2480.25	3031.5
2478.7	3029
2477.15	3025.5
2475.6	3087
2474.04	2945.5
2472.49	2984
2470.93	2976
2469.38	2895
2467.83	2944.5
2466.27	2926.5
2464.71	2940
2463.16	2951.5
2461.6	2938.5
2460.05	2901.5
2458.49	2845
2456.93	2919
2455.37	2904
2453.81	2887.5
2452.26	2842.5
2450.7	2906
2449.14	2793
2447.58	2779
2446.02	2806.5
2444.46	2786.5
2442.9	2833
2441.33	2833.5
2439.77	2799.5
2438.21	2785.5
2436.65	2776
2435.08	2758.5
2433.52	2758.5
2431.96	2750.5
2430.39	2743.5
2428.83	2755
2427.26	2686
2425.7	2729
2424.13	2730.5
2422.56	2706.5
2421	2688
2419.43	2686.5
2417.86	2694.5
2416.3	2688
2414.73	2649
2413.16	2676.5
2411.59	2652.5
2410.02	2643
2408.45	2610
2406.88	2653
2405.31	2647
2403.74	2624.5
2402.17	2641.5
2400.6	2627
2399.02	2593
2397.45	2571
2395.88	2552
2394.3	2579.5
2392.73	2554.5
2391.16	2560.5
2389.58	2556
2388.01	2575
2386.43	2605.5
2384.86	2572
2383.28	2522
2381.7	2529.5
2380.13	2519.5
2378.55	2534
2376.97	2565.5
2375.39	2541
2373.81	2527.5
2372.23	2495.5
2370.65	2533
2369.07	2527.5
2367.49	2492
2365.91	2502
2364.33	2501.5
2362.75	2496
2361.17	2421
2359.59	2496.5
2358.01	2404
2356.42	2439.5
2354.84	2438
2353.25	2438
2351.67	2417
2350.09	2381.5
2348.5	2358.5
2346.92	2368
2345.33	2395.5
2343.74	2382
2342.16	2438
2340.57	2370.5
2338.98	2347.5
2337.39	2411
2335.81	2338
2334.22	2376
2332.63	2397
2331.04	2397
2329.45	2353
2327.86	2341.5
2326.27	2383
2324.68	2343
2323.09	2336
2321.49	2333
2319.9	2318.5
2318.31	2352
2316.72	2318.5
2315.12	2337.5
2313.53	2292.5
2311.93	2275
2310.34	2312
2308.74	2220.5
2307.15	2249
2305.55	2245
2303.96	2255.5
2302.36	2231
2300.76	2218.5
2299.17	2249.5
2297.57	2174
2295.97	2211
2294.37	2197
2292.77	2178.5
2291.17	2298
2289.57	2148
2287.97	2212.5
2286.37	2189.5
2284.77	2208
2283.17	2138
2281.57	2152
2279.96	2127
2278.36	2092.5
2276.76	2125.5
2275.15	2089.5
2273.55	2081
2271.95	2035
2270.34	2119
2268.74	2090
2267.13	2085.5
2265.52	2087.5
2263.92	2068
2262.31	2015
2260.7	2013.5
2259.1	2025.5
2257.49	2007.5
2255.88	1989
2254.27	2028
2252.66	2018.5
2251.05	1974
2249.44	2028.5
2247.83	1972
2246.22	1984.5
2244.61	1984.5
2243	1961
2241.39	1966.5
2239.77	1956.5
2238.16	1929
2236.55	1987
2234.93	1934.5
2233.32	1936
2231.7	1903
2230.09	1899
2228.47	1878
2226.86	1936
2225.24	1819
2223.63	1841.5
2222.01	1868.5
2220.39	1883.5
2218.77	1868.5
2217.16	1857.5
2215.54	1864.5
2213.92	1840
2212.3	1906
2210.68	1870
2209.06	1817
2207.44	1799
2205.82	1815
2204.19	1819
2202.57	1826
2200.95	1837
2199.33	1796
2197.7	1827.5
2196.08	1747.5
2194.46	1808
2192.83	1798
2191.21	1816
2189.58	1728.5
2187.96	1808.5
2186.33	1783.5
2184.7	1742
2183.08	1757
2181.45	1738
2179.82	1736
2178.19	1738
2176.57	1679
2174.94	1690.5
2173.31	1739.5
2171.68	1713.5
2170.05	1689
2168.42	1689
2166.79	1655
2165.16	1730
2163.52	1695
2161.89	1648.5
2160.26	1653.5
2158.63	1660
2156.99	1676
2155.36	1623.5
2153.73	1658.5
2152.09	1658.5
2150.46	1649.5
2148.82	1660
2147.18	1629.5
2145.55	1652.5
2143.91	1598.5
2142.27	1567
2140.64	1563
2139	1611.5
2137.36	1582.5
2135.72	1589.5
2134.08	1544
2132.44	1585.5
2130.8	1560.5
2129.16	1535
2127.52	1505
2125.88	1497.5
2124.24	1531
2122.6	1520
2120.95	1482
2119.31	1479
2117.67	1474
2116.02	1477
2114.38	1476
2112.74	1451.5
2111.09	1473
2109.45	1442
2107.8	1485
2106.15	1455.5
2104.51	1443.5
2102.86	1412
2101.21	1424.5
2099.56	1436
2097.92	1423
2096.27	1413
2094.62	1382
2092.97	1416.5
2091.32	1407.5
2089.67	1384
2088.02	1426
2086.37	1401
2084.72	1416.5
2083.06	1406
2081.41	1370.5
2079.76	1377
2078.1	1357
2076.45	1362
2074.8	1311
2073.14	1338
2071.49	1336
2069.83	1378.5
2068.18	1348.5
2066.52	1340.5
2064.86	1312
2063.21	1328
2061.55	1327
2059.89	1325
2058.23	1327.5
2056.57	1329.5
2054.92	1316
2053.26	1289
2051.6	1306
2049.94	1293.5
2048.27	1307
2046.61	1314
2044.95	1294.5
2043.29	1310
2041.63	1277.5
2039.97	1271.5
2038.3	1285
2036.64	1297
2034.97	1269
2033.31	1244.5
2031.64	1238
2029.98	1288.5
2028.31	1253.5
2026.65	1257.5
2024.98	1242.5
2023.31	1249.5
2021.65	1174.5
2019.98	1239.5
2018.31	1215
2016.64	1220
2014.97	1195
2013.3	1194
2011.63	1169.5
2009.96	1146
2008.29	1192
2006.62	1166
2004.95	1157.5
2003.28	1155
2001.6	1164.5
1999.93	1122
1998.26	1162.5
1996.58	1168.5
1994.91	1110.5
1993.24	1145.5
1991.56	1145
1989.89	1159
1988.21	1113
1986.53	1101
1984.86	1144
1983.18	1125
1981.5	1080
1979.82	1091
1978.15	1155
1976.47	1062
1974.79	1097
1973.11	1086
1971.43	1087
1969.75	1088.5
1968.07	1028.5
1966.38	1068
1964.7	1071
1963.02	1081
1961.34	1081.5
1959.66	1056
1957.97	1020
1956.29	1068
1954.6	1048
1952.92	1054.5
1951.23	1037
1949.55	1022
1947.86	1030
1946.18	1020
1944.49	1060.5
1942.8	1001
1941.11	1023
1939.43	1029.5
1937.74	1014
1936.05	1030
1934.36	976
1932.67	995
1930.98	1015
1929.29	965
1927.6	984
1925.91	965.5
1924.21	963.5
1922.52	966
1920.83	947
1919.14	962.5
1917.44	953.5
1915.75	953
1914.05	941
1912.36	938
1910.66	910
1908.97	964.5
1907.27	940.5
1905.58	921
1903.88	932
1902.18	881
1900.48	909
1898.79	934.5
1897.09	885
1895.39	897.5
1893.69	899
1891.99	901.5
1890.29	911.5
1888.59	904.5
1886.89	897
1885.18	886.5
1883.48	874.5
1881.78	874
1880.08	853
1878.37	851.5
1876.67	862
1874.96	868
1873.26	852
1871.55	874
1869.85	844
1868.14	822.5
1866.44	784
1864.73	816
1863.02	806
1861.32	814
1859.61	796.5
1857.9	814.5
1856.19	798
1854.48	805.5
1852.77	803
1851.06	782.5
1849.35	759.5
1847.64	791
1845.93	805.5
1844.21	762.5
1842.5	758.5
1840.79	780
1839.08	753
1837.36	777
1835.65	804.5
1833.93	747
1832.22	798
1830.5	775
1828.79	737.5
1827.07	778
1825.36	739
1823.64	770
1821.92	758
1820.2	762.5
1818.48	764
1816.77	754.5
1815.05	721
1813.33	727
1811.61	724
1809.89	700
1808.16	749
1806.44	720
1804.72	717.5
1803	685
1801.28	723.5
1799.55	702
1797.83	711.5
1796.11	708
1794.38	636
1792.66	717
1790.93	655
1789.21	693.5
1787.48	687
1785.75	656
1784.03	700
1782.3	686
1780.57	666
1778.84	701
1777.11	700
1775.38	625
1773.66	690.5
1771.93	673
1770.19	673
1768.46	681
1766.73	675
1765	709
1763.27	676.5
1761.54	649
1759.8	694.5
1758.07	678.5
1756.34	711.5
1754.6	693
1752.87	685
1751.13	713
1749.4	693
1747.66	707
1745.92	674
1744.19	728.5
1742.45	719
1740.71	688
1738.97	676.5
1737.23	643
1735.49	696
1733.75	671.5
1732.01	663.5
1730.27	661
1728.53	632
1726.79	634
1725.05	612
1723.31	642
1721.57	618
1719.82	637
1718.08	599
1716.34	627
1714.59	625
1712.85	583
1711.1	592
1709.36	604
1707.61	588.5
1705.86	615
1704.12	629
1702.37	627.5
1700.62	594
1698.87	630
1697.12	572
1695.37	587
1693.62	576
1691.87	574
1690.12	611
1688.37	606
1686.62	553.5
1684.87	575.5
1683.12	575
1681.36	583.5
1679.61	549
1677.86	576
1676.1	576
1674.35	594
1672.59	606
1670.84	602.5
1669.08	600
1667.33	672
1665.57	727
1663.81	716
1662.06	795
1660.3	776
1658.54	804
1656.78	824.5
1655.02	801.5
1653.26	783
1651.5	718
1649.74	668
1647.98	648
1646.22	611
1644.46	618
1642.7	591.5
1640.93	604
1639.17	565
1637.41	571.5
1635.64	559.5
1633.88	541
1632.11	563
1630.35	543
1628.58	534.5
1626.81	549
1625.05	516.5
1623.28	514
1621.51	519
1619.75	495
1617.98	510
1616.21	520.5
1614.44	484.5
1612.67	491.5
1610.9	467.5
1609.13	505
1607.36	504
1605.58	463
1603.81	501
1602.04	502
1600.27	514
1598.49	518.5
1596.72	500
1594.95	489
1593.17	517
1591.4	453
1589.62	494.5
1587.84	479.5
1586.07	435
1584.29	495
1582.51	479
1580.74	518.5
1578.96	456
1577.18	506
1575.4	487.5
1573.62	439
1571.84	457
1570.06	467.5
1568.28	446.5
1566.5	485
1564.72	473.5
1562.93	449
1561.15	443
1559.37	459
1557.58	506
1555.8	476
1554.02	467.5
1552.23	454
1550.45	492.5
1548.66	437
1546.87	439
1545.09	448
1543.3	445
1541.51	463
1539.72	423
1537.94	427.5
1536.15	459.5
1534.36	471
1532.57	418
1530.78	467
1528.99	407
1527.2	435
1525.4	441.5
1523.61	438.5
1521.82	435.5
1520.03	431
1518.23	413.5
1516.44	453
1514.65	447.5
1512.85	461
1511.06	446.5
1509.26	446
1507.46	439
1505.67	465
1503.87	420
1502.07	461
1500.28	459.5
1498.48	431
1496.68	461
1494.88	440
1493.08	432
1491.28	466
1489.48	490
1487.68	485
1485.88	507
1484.08	501.5
1482.27	496
1480.47	524
1478.67	544
1476.86	547.5
1475.06	603
1473.25	622.5
1471.45	664
1469.64	701
1467.84	714
1466.03	700
1464.23	810
1462.42	802
1460.61	858
1458.8	889
1456.99	905
1455.18	933.5
1453.37	945
1451.56	989
1449.75	970
1447.94	995
1446.13	1077
1444.32	1108
1442.51	1167
1440.7	1145
1438.88	1125
1437.07	1000
1435.26	964
1433.44	864
1431.63	820
1429.81	698
1427.99	670
1426.18	644
1424.36	626.5
1422.54	624
1420.73	580
1418.91	550.5
1417.09	531
1415.27	523.5
1413.45	472
1411.63	503
1409.81	509
1407.99	487
1406.17	445
1404.35	430
1402.53	458
1400.7	435
1398.88	464
1397.06	428
1395.23	391
1393.41	456.5
1391.58	416.5
1389.76	387
1387.93	403
1386.11	376
1384.28	447
1382.45	441.5
1380.62	412
1378.8	452.5
1376.97	451
1375.14	441
1373.31	430.5
1371.48	458
1369.65	436
1367.82	453.5
1365.99	450
1364.16	443
1362.32	401.5
1360.49	394
1358.66	436
1356.82	484.5
1354.99	413
1353.16	420.5
1351.32	429.5
1349.48	432.5
1347.65	445
1345.81	448
1343.98	459.5
1342.14	416
1340.3	422
1338.46	434.5
1336.62	402
1334.79	443.5
1332.95	446
1331.11	429
1329.27	467
1327.42	505.5
1325.58	512
1323.74	541.5
1321.9	554
1320.06	572
1318.21	605
1316.37	634.5
1314.53	610
1312.68	694
1310.84	716
1308.99	736.5
1307.15	797.5
1305.3	791
1303.45	818
1301.61	891.5
1299.76	874
1297.91	851
1296.06	834
1294.21	759
1292.36	653
1290.51	628.5
1288.66	606
1286.81	611
1284.96	604.5
1283.11	609.5
1281.26	611.5
1279.4	555
1277.55	600
1275.7	580.5
1273.84	637
1271.99	623.5
1270.13	607
1268.28	625
1266.42	620
1264.56	608.5
1262.71	612.5
1260.85	597
1258.99	575
1257.13	542
1255.27	544.5
1253.41	539
1251.56	499.5
1249.7	481
1247.83	477
1245.97	443
1244.11	463
1242.25	442.5
1240.39	440.5
1238.52	438
1236.66	436
1234.8	414
1232.93	412
1231.07	391
1229.2	388
1227.34	375.5
1225.47	400
1223.6	372
1221.74	362.5
1219.87	395.5
1218	404
1216.13	352
1214.26	386.5
1212.39	360.5
1210.53	346
1208.65	374
1206.78	344
1204.91	373
1203.04	373
1201.17	365
1199.3	357
1197.42	359.5
1195.55	346
1193.68	376
1191.8	364
1189.93	337
1188.05	366
1186.17	387
1184.3	385
1182.42	348
1180.54	369.5
1178.67	361
1176.79	362
1174.91	368
1173.03	368
1171.15	342
1169.27	375.5
1167.39	361
1165.51	371
1163.63	331
1161.75	389
1159.86	394
1157.98	353.5
1156.1	389.5
1154.21	351.5
1152.33	367
1150.44	352.5
1148.56	341.5
1146.67	358
1144.79	357
1142.9	359
1141.01	342
1139.12	389
1137.24	391
1135.35	418
1133.46	422
1131.57	473
1129.68	463
1127.79	509
1125.9	497
1124.01	531
1122.12	477
1120.22	480.5
1118.33	463
1116.44	475
1114.54	434.5
1112.65	441.5
1110.75	429.5
1108.86	457
1106.96	457
1105.07	476
1103.17	487
1101.27	512
1099.38	561.5
1097.48	559.5
1095.58	577.5
1093.68	584
1091.78	563
1089.88	634.5
1087.98	610
1086.08	635
1084.18	642
1082.28	674
1080.38	654.5
1078.47	623
1076.57	648.5
1074.67	628
1072.76	609
1070.86	625
1068.95	648
1067.05	663
1065.14	691.5
1063.24	689.5
1061.33	665
1059.42	605
1057.51	563.5
1055.6	547
1053.7	533.5
1051.79	484
1049.88	505
1047.97	473
1046.06	496.5
1044.14	476
1042.23	480.5
1040.32	472
1038.41	493
1036.5	463
1034.58	486.5
1032.67	481
1030.75	491
1028.84	480
1026.92	471
1025.01	458
1023.09	473.5
1021.17	459.5
1019.26	482
1017.34	449.5
1015.42	449
1013.5	422.5
1011.58	465.5
1009.66	434
1007.74	430
1005.82	440.5
1003.9	413
1001.98	443
1000.06	396
998.134	438
996.212	410
994.288	441
992.364	468
990.44	454
988.515	497
986.589	479
984.663	518.5
982.737	495.5
980.81	497
978.883	545.5
976.955	574
975.027	537
973.098	581.5
971.169	586
969.239	593
967.308	532
965.378	585
963.447	540
961.516	557
959.583	561.5
957.65	536
955.718	593
953.784	600
951.85	596
949.916	575
947.981	605.5
946.045	604.5
944.109	617.5
942.173	601.5
940.236	593.5
938.298	600
936.36	621
934.422	631.5
932.484	565
930.544	551
928.604	530
926.664	529
924.724	499
922.782	510
920.84	543
918.898	519
916.955	528
915.012	515
913.068	528
911.124	506
909.18	489
907.235	511
905.289	515.5
903.343	507.5
901.397	535
899.45	530.5
897.502	557
895.554	561
893.605	560.5
891.657	596.5
889.707	593
887.758	590
885.807	586.5
883.856	595
881.905	571.5
879.953	567.5
878.001	600
876.048	604.5
874.094	572
872.14	610
870.186	609
868.232	617.5
866.276	587
864.321	587
862.365	574
860.408	561.5
858.451	600
856.493	575.5
854.535	532.5
852.576	545
850.617	551
848.658	541
846.698	606
844.737	561.5
842.776	572.5
840.814	513
838.852	550.5
836.89	581
834.927	564
832.963	502
830.999	476
829.035	457
827.07	477.5
825.105	444
823.139	457
821.172	460
819.206	453.5
817.238	455.5
815.27	411
813.301	401
811.333	418
809.363	406
807.394	408
805.424	403.5
803.453	392
801.482	365
799.509	399.5
797.538	355
795.565	360
793.592	371.5
791.618	329
789.643	337.5
787.669	363
785.693	361
783.718	378.5
781.742	368
779.765	338
777.788	350
775.811	332.5
773.832	340.5
771.853	335
769.875	363
767.895	338.5
765.915	337
763.934	353
761.953	314
759.972	344
757.99	331
756.007	330
754.024	371
752.041	331
750.056	332
748.072	352
746.087	364.5
744.102	357.5
742.116	343
740.13	365
738.143	365
736.155	362
734.167	366
732.179	374.5
730.19	371.5
728.2	391.5
726.21	376.5
724.22	361
722.229	388
720.237	356.5
718.246	349
716.253	355
714.26	368.5
712.267	386.5
710.273	354
708.279	318
706.284	305
704.289	337
702.293	364.5
700.296	315
698.3	331
696.303	329.5
694.305	319.5
692.307	337
690.307	322
688.308	360.5
686.309	303
684.308	318.5
682.308	297
680.306	323.5
678.304	357.5
676.302	337
674.3	335
672.296	339
670.293	362
668.289	364.5
666.284	349
664.278	348.5
662.273	356.5
660.266	376
658.26	343
656.252	344
654.244	384
652.237	335
650.227	357
648.218	362
646.209	377.5
644.198	331
642.188	352
640.177	366
638.165	360.5
636.153	378
634.14	368
632.128	394
630.113	357
628.099	397.5
626.085	397
624.07	372.5
622.054	407
620.038	400.5
618.021	361
616.004	392
613.986	393
611.968	405
609.949	406
607.93	397.5
605.911	408
603.891	424
601.87	395
599.848	424
597.827	397
595.805	389
593.782	413.5
591.759	381.5
589.735	391.5
587.711	386.5
585.687	374.5
583.661	404.5
581.636	417
579.609	390
577.583	380
575.555	376.5
573.527	386
571.5	385
569.471	374.5
567.441	404
565.412	421
563.382	405.5
561.351	426.5
559.32	390
557.289	383
555.257	420.5
553.223	401.5
551.19	439.5
549.157	427
547.122	452
545.088	454.5
543.053	475
541.017	514
538.981	572
536.943	572.5
534.907	692
532.869	841
530.831	1082
528.792	1513.5
526.752	2344.5
524.713	3388
522.673	4300
520.632	4495.5
518.591	3842
516.549	2904
514.507	1980
512.464	1398
510.42	951
508.377	790.5
506.332	668
504.288	595
502.242	545
500.196	549
498.15	539.5
496.104	524
494.056	487.5
492.008	523.5
489.96	490.5
487.911	503
485.862	469
483.812	493
481.761	481.5
479.71	466.5
477.659	476
475.607	466.5
473.555	459
471.502	442
469.448	475
467.395	457.5
465.34	485.5
463.285	428.5
461.23	461
459.174	442
457.118	464
455.061	485.5
453.003	485.5
450.945	481
448.887	490.5
446.828	486
444.768	492.5
442.708	487.5
440.647	483.5
438.587	520.5
436.525	503.5
434.463	484
432.4	483
430.337	524
428.274	503.5
426.21	482
424.145	528.5
422.079	506.5
420.014	499.5
417.948	494.5
415.882	553.5
413.814	504
411.746	526.5
409.679	507.5
407.609	529.5
405.54	526.5
403.47	490
401.401	529.5
399.329	548
397.258	516
395.187	509.5
393.114	491
391.041	544
388.968	504
386.895	520.5
384.82	522.5
382.745	500
380.67	513
378.594	543.5
376.517	510
374.44	549.5
372.363	540
370.286	496
368.207	540
366.128	587
364.049	553
361.969	559
359.888	558
357.807	550.5
355.725	532
353.643	574.5
351.561	551
349.477	540
347.394	551
345.31	549
343.226	562.5
341.141	560.5
339.055	562
336.968	570
334.882	560.5
332.795	585
330.707	598
328.618	597.5
326.53	609.5
324.44	604
322.351	631.5
320.26	619
318.17	646
316.078	671
313.987	675
311.895	686.5
309.802	695
307.708	752.5
305.614	772.5
303.52	779
301.425	744.5
299.329	742
297.233	760.5
295.137	718.5
293.039	735.5
290.942	716
288.844	676
286.745	689.5
284.647	678
282.546	692
280.446	706
278.346	672
276.245	689
274.143	725.5
272.041	705
269.939	697.5
267.835	716
265.731	731.5
263.627	706
261.522	774.5
259.417	765
257.311	762
255.204	759
253.098	745
250.99	744.5
248.882	737
246.774	800.5
244.664	754
242.555	778.5
240.445	764
238.334	808.5
236.223	752
234.112	766
232	812
229.888	803
227.775	839
225.661	853
223.546	851.5
221.431	869.5
219.316	874
217.201	835.5
215.084	828.5
212.967	815.5
210.85	865
208.732	853
206.614	873.5
204.495	868.5
202.375	876
200.256	841
198.135	864.5
196.014	840.5
193.893	873
191.771	876.5
189.648	869.5
187.525	885
185.401	906.5
183.277	895
181.152	903
179.027	875
176.901	880.5
174.775	882
172.648	907.5
170.521	937
168.393	952
166.265	923
164.136	945
162.007	1007
159.876	975
157.746	966
155.615	1004
153.483	1068
151.351	1067
149.219	1079
147.086	1113.5
144.952	1149.5
142.818	1159
140.684	1194
138.548	1172
136.413	1251.5
134.276	1312
132.139	1289
130.002	1333
127.864	1355
125.725	1463
123.587	1520
121.447	1601.5
119.307	1624.5
117.166	1733.5
115.026	1744
112.885	1794
110.743	1873
108.6	1914.5
106.456	2019.5
104.313	2046.5
102.169	1985
100.023	1955
97.8789	1808
95.7328	1695.5
93.5869	1547
91.4392	1304
89.2919	1076
87.1447	894.5
84.9959	702
