3528.51	286
3527.23	284.5
3525.95	317
3524.67	293
3523.39	298.5
3522.1	315.5
3520.82	326
3519.54	298
3518.26	312.5
3516.97	328
3515.69	317
3514.4	318
3513.12	314.5
3511.84	330
3510.55	329
3509.26	327
3507.98	298
3506.69	325.5
3505.41	352.5
3504.12	330
3502.83	320
3501.54	319
3500.26	337
3498.97	353
3497.68	299
3496.39	367.5
3495.1	346.5
3493.81	363.5
3492.52	351
3491.23	384
3489.94	376
3488.65	364.5
3487.36	343
3486.07	372.5
3484.78	376
3483.49	410
3482.19	376.5
3480.9	414
3479.61	408
3478.31	395.5
3477.02	390.5
3475.73	383.5
3474.43	422
3473.14	399
3471.84	424
3470.54	468
3469.25	422
3467.95	434
3466.66	450.5
3465.36	448.5
3464.06	446
3462.76	426.5
3461.46	468.5
3460.17	463
3458.87	463
3457.57	463.5
3456.27	481
3454.97	449
3453.67	471.5
3452.37	514
3451.07	480
3449.77	462
3448.47	498
3447.16	470.5
3445.86	517.5
3444.56	501
3443.26	493
3441.95	508
3440.65	542
3439.35	535.5
3438.04	530.5
3436.74	545
3435.43	539.5
3434.13	503
3432.82	565
3431.52	582
3430.21	595.5
3428.9	616
3427.6	596.5
3426.29	636.5
3424.98	625
3423.67	635
3422.36	676
3421.06	644
3419.75	684
3418.44	686
3417.13	663
3415.82	677
3414.51	681.5
3413.2	714.5
3411.88	741
3410.57	719
3409.26	748
3407.95	745
3406.64	747.5
3405.32	746
3404.01	781.5
3402.7	768
3401.38	767
3400.07	776
3398.75	805.5
3397.44	765.5
3396.12	768
3394.81	794
3393.49	805.5
3392.18	812
3390.86	836.5
3389.54	797.5
3388.23	840.5
3386.91	804
3385.59	832
3384.27	839.5
3382.95	861.5
3381.63	862
3380.31	854
3378.99	894
3377.67	864
3376.35	886
3375.03	903
3373.71	902.5
3372.39	911
3371.07	907.5
3369.75	927.5
3368.42	923
3367.1	925
3365.78	929
3364.45	951
3363.13	963
3361.81	962.5
3360.48	988
3359.16	968
3357.83	973
3356.51	970
3355.18	1010
3353.85	980
3352.53	1011.5
3351.2	1004.5
3349.87	1007
3348.54	1016
3347.22	1020
3345.89	986
3344.56	1040
3343.23	1010.5
3341.9	1061
3340.57	997.5
3339.24	1018.5
3337.91	1024.5
3336.58	1034
3335.25	1035
3333.92	1017
3332.58	1044.5
3331.25	1090
3329.92	1067
3328.59	1057.5
3327.25	1092
3325.92	1069.5
3324.58	1094.5
3323.25	1080.5
3321.92	1121.5
3320.58	1082
3319.25	1063
3317.91	1106
3316.57	1113
3315.24	1114
3313.9	1148
3312.56	1122
3311.23	1138.5
3309.89	1151.5
3308.55	1118
3307.21	1150.5
3305.87	1187
3304.53	1167
3303.19	1151.5
3301.85	1202
3300.51	1154
3299.17	1157
3297.83	1186
3296.49	1228.5
3295.15	1189.5
3293.81	1177.5
3292.46	1207
3291.12	1228.5
3289.78	1165
3288.43	1206
3287.09	1256.5
3285.75	1198.5
3284.4	1256
3283.06	1288.5
3281.71	1249.5
3280.37	1270
3279.02	1243
3277.67	1244
3276.33	1280
3274.98	1254
3273.63	1267
3272.28	1265.5
3270.94	1285.5
3269.59	1295.5
3268.24	1297.5
3266.89	1310.5
3265.54	1342.5
3264.19	1296.5
3262.84	1328.5
3261.49	1336.5
3260.14	1333
3258.79	1355.5
3257.44	1354
3256.08	1383.5
3254.73	1425.5
3253.38	1452
3252.03	1457.5
3250.67	1458
3249.32	1505
3247.96	1555.5
3246.61	1572
3245.26	1617.5
3243.9	1625
3242.54	1621.5
3241.19	1712
3239.83	1752.5
3238.48	1843
3237.12	1832
3235.76	1875
3234.41	1890.5
3233.05	1985.5
3231.69	2027
3230.33	2094
3228.97	2130
3227.61	2144.5
3226.25	2184
3224.89	2282.5
3223.53	2303.5
3222.17	2338
3220.81	2409.5
3219.45	2439.5
3218.09	2534.5
3216.72	2549
3215.36	2566
3214	2598.5
3212.63	2635.5
3211.27	2735
3209.91	2764.5
3208.54	2757.5
3207.18	2754
3205.81	2809.5
3204.45	2834.5
3203.08	2863
3201.71	2880
3200.35	2865
3198.98	2889
3197.61	2933
3196.25	2939
3194.88	3001
3193.51	2987
3192.14	2957.5
3190.77	3062
3189.4	2993
3188.03	3011
3186.66	3071.5
3185.29	3087.5
3183.92	3086.5
3182.55	3107.5
3181.18	3067
3179.81	3139
3178.44	3176.5
3177.06	3171
3175.69	3172
3174.32	3224
3172.94	3236.5
3171.57	3279.5
3170.2	3286.5
3168.82	3250
3167.45	3290.5
3166.07	3331.5
3164.69	3316
3163.32	3333.5
3161.94	3393.5
3160.56	3390.5
3159.19	3417
3157.81	3496
3156.43	3486
3155.05	3539
3153.67	3507
3152.3	3584
3150.92	3650
3149.54	3629
3148.16	3655.5
3146.78	3693
3145.4	3743.5
3144.01	3701
3142.63	3738
3141.25	3792.5
3139.87	3806
3138.49	3805
3137.1	3907
3135.72	3908.5
3134.34	3960
3132.95	3977
3131.57	3969
3130.18	3968.5
3128.8	4034.5
3127.41	4044.5
3126.03	4010.5
3124.64	4085.5
3123.25	4096
3121.87	4138
3120.48	4172
3119.09	4148.5
3117.7	4211.5
3116.32	4229
3114.93	4297.5
3113.54	4312.5
3112.15	4353
3110.76	4275.5
3109.37	4363
3107.98	4367
3106.59	4389.5
3105.2	4378.5
3103.8	4497.5
3102.41	4510
3101.02	4462.5
3099.63	4500.5
3098.23	4535
3096.84	4539
3095.45	4606
3094.05	4613
3092.66	4569.5
3091.26	4550.5
3089.87	4655.5
3088.47	4595.5
3087.08	4669.5
3085.68	4648.5
3084.28	4629
3082.89	4699
3081.49	4666.5
3080.09	4713
3078.69	4709.5
3077.3	4717
3075.9	4727
3074.5	4778
3073.1	4786
3071.7	4771.5
3070.3	4849
3068.9	4878.5
3067.5	4855.5
3066.09	4873
3064.69	4822
3063.29	4824.5
3061.89	4919
3060.48	4940.5
3059.08	4866.5
3057.68	4966
3056.27	4891
3054.87	4942
3053.46	4988.5
3052.06	5026.5
3050.65	4956
3049.25	5010
3047.84	4966.5
3046.44	5108.5
3045.03	5028
3043.62	5095
3042.21	5085
3040.81	5125.5
3039.4	5151.5
3037.99	5186.5
3036.58	5146
3035.17	5188
3033.76	5147
3032.35	5163
3030.94	5172.5
3029.53	5204
3028.12	5244
3026.71	5225
3025.29	5167.5
3023.88	5269.5
3022.47	5192.5
3021.06	5269.5
3019.64	5281
3018.23	5307.5
3016.82	5262
3015.4	5302.5
3013.99	5336
3012.57	5310.5
3011.15	5340.5
3009.74	5383.5
3008.32	5311.5
3006.91	5288.5
3005.49	5343.5
3004.07	5299.5
3002.65	5462.5
3001.24	5371
2999.82	5424
2998.4	5435
2996.98	5481
2995.56	5423
2994.14	5511.5
2992.72	5507.5
2991.3	5571.5
2989.88	5596
2988.46	5670.5
2987.03	5638
2985.61	5687.5
2984.19	5679.5
2982.77	5764.5
2981.34	5768.5
2979.92	5789
2978.49	5804.5
2977.07	5777
2975.65	5819
2974.22	5857.5
2972.79	5932.5
2971.37	6004
2969.94	5964.5
2968.52	6020.5
2967.09	6014.5
2965.66	6039.5
2964.23	6112.5
2962.81	6017.5
2961.38	6118.5
2959.95	6149.5
2958.52	6113.5
2957.09	6078
2955.66	6186.5
2954.23	6153.5
2952.8	6190
2951.37	6183.5
2949.94	6180
2948.5	6211.5
2947.07	6217
2945.64	6252
2944.21	6258
2942.77	6244.5
2941.34	6252
2939.91	6375
2938.47	6304.5
2937.04	6337
2935.6	6372.5
2934.17	6378.5
2932.73	6369.5
2931.29	6441
2929.86	6480.5
2928.42	6440.5
2926.98	6469
2925.55	6511.5
2924.11	6493
2922.67	6486
2921.23	6524
2919.79	6547
2918.35	6576.5
2916.91	6556.5
2915.47	6615.5
2914.03	6652
2912.59	6629.5
2911.15	6643.5
2909.71	6566.5
2908.26	6597
2906.82	6711
2905.38	6645.5
2903.94	6688.5
2902.49	6686
2901.05	6688
2899.6	6764
2898.16	6788
2896.71	6798
2895.27	6680
2893.82	6850
2892.38	6803.5
2890.93	6799
2889.48	6845.5
2888.03	6734
2886.59	6724.5
2885.14	6828.5
2883.69	6821.5
2882.24	6721
2880.79	6824
2879.34	6766
2877.89	6818
2876.44	6751.5
2874.99	6810.5
2873.54	6878
2872.09	6820.5
2870.64	6813
2869.18	6844.5
2867.73	6786
2866.28	6848
2864.83	6907
2863.37	6846.5
2861.92	6842
2860.46	6884.5
2859.01	6905
2857.55	6890.5
2856.1	6817.5
2854.64	6842.5
2853.19	6768
2851.73	6890.5
2850.27	6876.5
2848.81	6831.5
2847.36	6915.5
2845.9	6919
2844.44	6834.5
2842.98	6866.5
2841.52	6844
2840.06	6805
2838.6	6812.5
2837.14	6793.5
2835.68	6777.5
2834.22	6753
2832.76	6718.5
2831.3	6755.5
2829.83	6792
2828.37	6746.5
2826.91	6687.5
2825.44	6675.5
2823.98	6752
2822.52	6725.5
2821.05	6667.5
2819.59	6648
2818.12	6622
2816.66	6572.5
2815.19	6595
2813.72	6586.5
2812.26	6569
2810.79	6470
2809.32	6523
2807.85	6533.5
2806.38	6532
2804.92	6504.5
2803.45	6550.5
2801.98	6562.5
2800.51	6532
2799.04	6477
2797.57	6431
2796.1	6515
2794.62	6475
2793.15	6402.5
2791.68	6469.5
2790.21	6486
2788.73	6402
2787.26	6446
2785.79	6497.5
2784.31	6396
2782.84	6511
2781.36	6416.5
2779.89	6533.5
2778.41	6484
2776.94	6379.5
2775.46	6514.5
2773.99	6443
2772.51	6403.5
2771.03	6471
2769.55	6473.5
2768.07	6431.5
2766.6	6442.5
2765.12	6435.5
2763.64	6413
2762.16	6384
2760.68	6443.5
2759.2	6419.5
2757.72	6437
2756.24	6312.5
2754.75	6389.5
2753.27	6405.5
2751.79	6396
2750.31	6441
2748.82	6438
2747.34	6370.5
2745.86	6442
2744.37	6345
2742.89	6398
2741.4	6348.5
2739.92	6373
2738.43	6393.5
2736.94	6418.5
2735.46	6377
2733.97	6417.5
2732.48	6391
2731	6418.5
2729.51	6502.5
2728.02	6495
2726.53	6414.5
2725.04	6407
2723.55	6461.5
2722.06	6409
2720.57	6435.5
2719.08	6385.5
2717.59	6427.5
2716.1	6446.5
2714.61	6427.5
2713.11	6382
2711.62	6321
2710.13	6367.5
2708.64	6348
2707.14	6360
2705.65	6390.5
2704.15	6302.5
2702.66	6306
2701.16	6279
2699.67	6286.5
2698.17	6224.5
2696.67	6297
2695.18	6226
2693.68	6220
2692.18	6274.5
2690.69	6228
2689.19	6230.5
2687.69	6137.5
2686.19	6130.5
2684.69	6191.5
2683.19	6147
2681.69	6175
2680.19	6122.5
2678.69	6114.5
2677.19	6134
2675.68	6194
2674.18	6101
2672.68	6137
2671.18	6077.5
2669.67	6176
2668.17	6082.5
2666.66	6084
2665.16	6128.5
2663.66	6082
2662.15	6074.5
2660.64	6016.5
2659.14	6023.5
2657.63	6132
2656.13	6002.5
2654.62	6051
2653.11	6045.5
2651.6	6068.5
2650.09	6029.5
2648.58	6028.5
2647.08	6013
2645.57	6019.5
2644.06	6031
2642.55	6009
2641.04	6067.5
2639.52	5985
2638.01	5985.5
2636.5	5815
2634.99	5937.5
2633.48	5885.5
2631.96	5929.5
2630.45	5901.5
2628.94	5886.5
2627.42	5838
2625.91	5822.5
2624.39	5825.5
2622.88	5820
2621.36	5898.5
2619.85	5914.5
2618.33	5937.5
2616.81	5857.5
2615.3	5837
2613.78	5896
2612.26	5853
2610.74	5840.5
2609.22	5843.5
2607.7	5760
2606.18	5746
2604.66	5646
2603.14	5653.5
2601.62	5698.5
2600.1	5660
2598.58	5607.5
2597.06	5639
2595.54	5632
2594.01	5647.5
2592.49	5651
2590.97	5604
2589.44	5630
2587.92	5711
2586.39	5680
2584.87	5579
2583.34	5593
2581.82	5582
2580.29	5645.5
2578.76	5574.5
2577.24	5537.5
2575.71	5513.5
2574.18	5557
2572.65	5593.5
2571.13	5524.5
2569.6	5545.5
2568.07	5513.5
2566.54	5442
2565.01	5482.5
2563.48	5538.5
2561.95	5440
2560.42	5397
2558.88	5444
2557.35	5412
2555.82	5417.5
2554.29	5374
2552.75	5414
2551.22	5407.5
2549.69	5336
2548.15	5348.5
2546.62	5378
2545.08	5395.5
2543.55	5312
2542.01	5322
2540.47	5295.5
2538.94	5267
2537.4	5278
2535.86	5232.5
2534.33	5220
2532.79	5233.5
2531.25	5155.5
2529.71	5207
2528.17	5148
2526.63	5088
2525.09	5159.5
2523.55	5122
2522.01	5083.5
2520.47	5144
2518.92	5090
2517.38	5123
2515.84	5062
2514.3	5088.5
2512.75	5047.5
2511.21	4990.5
2509.67	5038.5
2508.12	4914
2506.58	4940
2505.03	4951
2503.49	4954
2501.94	4884
2500.39	4979
2498.85	4893
2497.3	4842
2495.75	4881
2494.2	4821.5
2492.65	4821.5
2491.11	4756.5
2489.56	4794
2488.01	4789.5
2486.46	4725.5
2484.91	4782.5
2483.36	4693.5
2481.8	4758
2480.25	4742.5
2478.7	4717.5
2477.15	4622.5
2475.6	4748
2474.04	4677.5
2472.49	4618.5
2470.93	4604.5
2469.38	4622
2467.83	4586
2466.27	4636
2464.71	4572.5
2463.16	4508
2461.6	4510
2460.05	4534
2458.49	4464.5
2456.93	4505.5
2455.37	4468.5
2453.81	4436
2452.26	4399
2450.7	4450
2449.14	4409
2447.58	4395.5
2446.02	4369.5
2444.46	4356
2442.9	4304.5
2441.33	4361
2439.77	4329
2438.21	4356
2436.65	4260.5
2435.08	4246.5
2433.52	4341.5
2431.96	4244.5
2430.39	4270.5
2428.83	4214
2427.26	4249.5
2425.7	4206
2424.13	4222
2422.56	4227
2421	4209.5
2419.43	4184.5
2417.86	4132.5
2416.3	4110.5
2414.73	4113
2413.16	4144.5
2411.59	4041.5
2410.02	4067
2408.45	4026
2406.88	4032
2405.31	4033
2403.74	4062.5
2402.17	4096
2400.6	4010.5
2399.02	4029.5
2397.45	3994
2395.88	3964
2394.3	3930.5
2392.73	3851.5
2391.16	3970
2389.58	3863.5
2388.01	3939.5
2386.43	3952
2384.86	3912
2383.28	3921
2381.7	3912
2380.13	3870.5
2378.55	3868
2376.97	3948
2375.39	3910
2373.81	3859.5
2372.23	3847.5
2370.65	3918
2369.07	3879.5
2367.49	3905
2365.91	3810.5
2364.33	3784
2362.75	3817
2361.17	3766.5
2359.59	3812
2358.01	3781.5
2356.42	3808
2354.84	3768
2353.25	3787
2351.67	3736
2350.09	3731.5
2348.5	3725.5
2346.92	3718
2345.33	3712.5
2343.74	3651
2342.16	3708
2340.57	3703.5
2338.98	3639.5
2337.39	3659.5
2335.81	3638
2334.22	3695
2332.63	3699.5
2331.04	3698.5
2329.45	3668.5
2327.86	3656
2326.27	3643
2324.68	3678
2323.09	3661.5
2321.49	3612.5
2319.9	3610
2318.31	3637.5
2316.72	3570
2315.12	3596.5
2313.53	3505.5
2311.93	3540
2310.34	3541
2308.74	3473.5
2307.15	3504
2305.55	3470
2303.96	3445.5
2302.36	3511.5
2300.76	3442.5
2299.17	3455.5
2297.57	3413
2295.97	3382.5
2294.37	3394.5
2292.77	3378.5
2291.17	3388.5
2289.57	3370.5
2287.97	3302.5
2286.37	3340.5
2284.77	3264
2283.17	3270
2281.57	3249.5
2279.96	3272.5
2278.36	3240
2276.76	3194
2275.15	3267.5
2273.55	3218
2271.95	3152
2270.34	3221
2268.74	3210
2267.13	3133.5
2265.52	3164.5
2263.92	3068
2262.31	3159.5
2260.7	3103.5
2259.1	3125
2257.49	3098.5
2255.88	3127
2254.27	3093
2252.66	3127
2251.05	3023
2249.44	3038.5
2247.83	2992.5
2246.22	3065
2244.61	3026.5
2243	3042
2241.39	3053.5
2239.77	2973
2238.16	2948
2236.55	2916
2234.93	2924.5
2233.32	2928
2231.7	2964.5
2230.09	2959.5
2228.47	2902
2226.86	2943
2225.24	2870.5
2223.63	2883
2222.01	2852.5
2220.39	2884
2218.77	2876
2217.16	2874.5
2215.54	2856
2213.92	2786.5
2212.3	2810.5
2210.68	2768
2209.06	2758
2207.44	2806.5
2205.82	2774.5
2204.19	2769.5
2202.57	2758
2200.95	2796
2199.33	2709.5
2197.7	2770.5
2196.08	2743.5
2194.46	2756.5
2192.83	2700
2191.21	2728.5
2189.58	2711.5
2187.96	2699.5
2186.33	2654
2184.7	2698.5
2183.08	2659
2181.45	2605.5
2179.82	2584
2178.19	2651.5
2176.57	2632
2174.94	2618
2173.31	2615.5
2171.68	2587
2170.05	2569.5
2168.42	2583.5
2166.79	2562.5
2165.16	2539
2163.52	2518
2161.89	2570
2160.26	2543
2158.63	2538.5
2156.99	2554
2155.36	2571
2153.73	2548
2152.09	2521
2150.46	2547.5
2148.82	2513.5
2147.18	2528
2145.55	2482.5
2143.91	2504
2142.27	2459.5
2140.64	2455.5
2139	2438
2137.36	2499
2135.72	2434
2134.08	2416.5
2132.44	2370
2130.8	2340.5
2129.16	2411
2127.52	2345.5
2125.88	2346.5
2124.24	2302
2122.6	2310.5
2120.95	2310.5
2119.31	2292
2117.67	2243
2116.02	2247
2114.38	2252.5
2112.74	2256
2111.09	2218.5
2109.45	2253
2107.8	2231
2106.15	2242.5
2104.51	2194
2102.86	2183.5
2101.21	2186.5
2099.56	2163.5
2097.92	2199.5
2096.27	2119
2094.62	2142.5
2092.97	2097
2091.32	2117
2089.67	2101
2088.02	2142.5
2086.37	2118
2084.72	2110
2083.06	2108
2081.41	2092
2079.76	2111
2078.1	2102.5
2076.45	2059
2074.8	2042
2073.14	2023.5
2071.49	1978.5
2069.83	2058.5
2068.18	2025
2066.52	2018.5
2064.86	2057
2063.21	2028.5
2061.55	2022
2059.89	2038.5
2058.23	2010
2056.57	1980.5
2054.92	2014.5
2053.26	2000.5
2051.6	1993.5
2049.94	1987.5
2048.27	1980.5
2046.61	1991.5
2044.95	1956
2043.29	2006.5
2041.63	1945.5
2039.97	1967
2038.3	1961
2036.64	1937
2034.97	1929.5
2033.31	1961
2031.64	1903.5
2029.98	1916
2028.31	1896.5
2026.65	1870.5
2024.98	1946.5
2023.31	1865
2021.65	1854.5
2019.98	1856.5
2018.31	1790.5
2016.64	1841.5
2014.97	1862
2013.3	1824
2011.63	1822
2009.96	1795
2008.29	1806.5
2006.62	1806
2004.95	1757
2003.28	1790.5
2001.6	1769.5
1999.93	1790.5
1998.26	1772.5
1996.58	1735.5
1994.91	1718.5
1993.24	1760
1991.56	1686.5
1989.89	1724
1988.21	1748.5
1986.53	1733
1984.86	1712
1983.18	1694
1981.5	1716.5
1979.82	1708
1978.15	1693.5
1976.47	1685
1974.79	1679.5
1973.11	1666
1971.43	1645.5
1969.75	1659
1968.07	1668
1966.38	1668
1964.7	1639
1963.02	1628.5
1961.34	1650.5
1959.66	1644
1957.97	1610
1956.29	1615
1954.6	1606.5
1952.92	1595.5
1951.23	1603
1949.55	1624
1947.86	1636
1946.18	1582.5
1944.49	1586.5
1942.8	1568
1941.11	1575.5
1939.43	1545.5
1937.74	1556
1936.05	1548.5
1934.36	1548.5
1932.67	1530.5
1930.98	1518
1929.29	1502
1927.6	1465.5
1925.91	1450.5
1924.21	1489
1922.52	1478.5
1920.83	1464.5
1919.14	1467.5
1917.44	1473
1915.75	1430
1914.05	1502
1912.36	1407.5
1910.66	1421.5
1908.97	1395.5
1907.27	1435.5
1905.58	1381
1903.88	1410
1902.18	1396
1900.48	1386.5
1898.79	1357
1897.09	1373.5
1895.39	1352
1893.69	1393.5
1891.99	1343
1890.29	1360
1888.59	1367.5
1886.89	1308
1885.18	1325
1883.48	1305
1881.78	1298
1880.08	1270.5
1878.37	1261
1876.67	1273.5
1874.96	1259
1873.26	1252
1871.55	1263.5
1869.85	1260
1868.14	1264.5
1866.44	1266.5
1864.73	1260.5
1863.02	1227.5
1861.32	1235
1859.61	1236
1857.9	1253.5
1856.19	1206.5
1854.48	1211.5
1852.77	1202
1851.06	1198
1849.35	1226.5
1847.64	1190
1845.93	1161
1844.21	1186.5
1842.5	1168
1840.79	1185
1839.08	1158.5
1837.36	1137
1835.65	1173
1833.93	1133.5
1832.22	1165
1830.5	1152.5
1828.79	1138
1827.07	1146.5
1825.36	1119
1823.64	1142.5
1821.92	1142.5
1820.2	1094
1818.48	1114.5
1816.77	1088.5
1815.05	1087
1813.33	1080.5
1811.61	1088
1809.89	1077
1808.16	1082
1806.44	1042
1804.72	1072
1803	1068.5
1801.28	1003
1799.55	1001
1797.83	1068
1796.11	1070
1794.38	1062
1792.66	1021.5
1790.93	1034
1789.21	1009.5
1787.48	1008
1785.75	996.5
1784.03	1023.5
1782.3	979
1780.57	994
1778.84	998
1777.11	983
1775.38	945
1773.66	963
1771.93	977.5
1770.19	995
1768.46	994
1766.73	970
1765	991.5
1763.27	1018.5
1761.54	998
1759.8	976.5
1758.07	1006
1756.34	989
1754.6	1024.5
1752.87	1019.5
1751.13	995.5
1749.4	1042
1747.66	1019
1745.92	979.5
1744.19	1006
1742.45	1009.5
1740.71	1010
1738.97	952
1737.23	972
1735.49	969
1733.75	965
1732.01	939
1730.27	918
1728.53	928.5
1726.79	948.5
1725.05	947
1723.31	883.5
1721.57	925.5
1719.82	886
1718.08	904
1716.34	877
1714.59	882.5
1712.85	886.5
1711.1	900
1709.36	896
1707.61	891.5
1705.86	870
1704.12	875
1702.37	853.5
1700.62	870
1698.87	845
1697.12	871
1695.37	830.5
1693.62	806
1691.87	858
1690.12	827.5
1688.37	790
1686.62	833.5
1684.87	786
1683.12	799.5
1681.36	783
1679.61	827
1677.86	808
1676.1	833
1674.35	832.5
1672.59	840
1670.84	854
1669.08	867.5
1667.33	871
1665.57	868.5
1663.81	913.5
1662.06	926.5
1660.3	961
1658.54	1000
1656.78	1004.5
1655.02	1049.5
1653.26	1012.5
1651.5	947
1649.74	908
1647.98	888.5
1646.22	863
1644.46	816.5
1642.7	834.5
1640.93	789.5
1639.17	796.5
1637.41	777.5
1635.64	763.5
1633.88	740.5
1632.11	761.5
1630.35	762
1628.58	735
1626.81	747
1625.05	686.5
1623.28	751
1621.51	731
1619.75	698
1617.98	703
1616.21	697
1614.44	701.5
1612.67	704.5
1610.9	675
1609.13	699
1607.36	670
1605.58	703
1603.81	704
1602.04	665.5
1600.27	705.5
1598.49	695.5
1596.72	722
1594.95	671
1593.17	692
1591.4	675
1589.62	659
1587.84	684
1586.07	671
1584.29	677
1582.51	670
1580.74	646.5
1578.96	640
1577.18	669.5
1575.4	657
1573.62	659.5
1571.84	672.5
1570.06	646.5
1568.28	674.5
1566.5	662
1564.72	643
1562.93	641.5
1561.15	627
1559.37	637
1557.58	651.5
1555.8	669
1554.02	631
1552.23	685
1550.45	636
1548.66	624
1546.87	599.5
1545.09	617
1543.3	595.5
1541.51	597.5
1539.72	606
1537.94	602.5
1536.15	607.5
1534.36	608
1532.57	583
1530.78	589
1528.99	589
1527.2	584.5
1525.4	566
1523.61	579
1521.82	571
1520.03	563.5
1518.23	556
1516.44	557
1514.65	560
1512.85	627
1511.06	597.5
1509.26	622
1507.46	575
1505.67	579
1503.87	594
1502.07	615
1500.28	612
1498.48	583
1496.68	579
1494.88	598
1493.08	617.5
1491.28	609.5
1489.48	611.5
1487.68	623
1485.88	602
1484.08	637
1482.27	696
1480.47	635.5
1478.67	655
1476.86	643
1475.06	731.5
1473.25	740.5
1471.45	778
1469.64	819.5
1467.84	836
1466.03	866
1464.23	901
1462.42	935
1460.61	1010
1458.8	1012
1456.99	1022
1455.18	1059
1453.37	1135
1451.56	1115
1449.75	1158
1447.94	1171
1446.13	1203
1444.32	1243.5
1442.51	1271
1440.7	1241
1438.88	1217
1437.07	1202
1435.26	1124
1433.44	1034
1431.63	971.5
1429.81	875
1427.99	800.5
1426.18	740.5
1424.36	688
1422.54	687
1420.73	654
1418.91	657
1417.09	671
1415.27	589
1413.45	587
1411.63	593
1409.81	585
1407.99	591.5
1406.17	546
1404.35	531.5
1402.53	526
1400.7	528
1398.88	552.5
1397.06	498.5
1395.23	492
1393.41	512.5
1391.58	530
1389.76	528.5
1387.93	505
1386.11	512
1384.28	501
1382.45	524
1380.62	508
1378.8	521.5
1376.97	526
1375.14	521
1373.31	525.5
1371.48	514.5
1369.65	527.5
1367.82	536
1365.99	499.5
1364.16	508
1362.32	518
1360.49	516
1358.66	509
1356.82	491
1354.99	532
1353.16	511
1351.32	522.5
1349.48	501
1347.65	517.5
1345.81	514
1343.98	525
1342.14	544
1340.3	476
1338.46	505.5
1336.62	535
1334.79	531
1332.95	531.5
1331.11	540
1329.27	550
1327.42	579
1325.58	592.5
1323.74	600
1321.9	641
1320.06	628.5
1318.21	654.5
1316.37	720.5
1314.53	706
1312.68	790
1310.84	820
1308.99	826
1307.15	852
1305.3	905
1303.45	965.5
1301.61	926
1299.76	907
1297.91	940
1296.06	833
1294.21	833
1292.36	777
1290.51	725
1288.66	683.5
1286.81	657.5
1284.96	628.5
1283.11	639
1281.26	634.5
1279.4	598
1277.55	633
1275.7	619.5
1273.84	650
1271.99	668.5
1270.13	651
1268.28	623
1266.42	632
1264.56	609
1262.71	605
1260.85	602
1258.99	575
1257.13	565.5
1255.27	572
1253.41	527
1251.56	539.5
1249.7	531.5
1247.83	545.5
1245.97	489.5
1244.11	479
1242.25	481
1240.39	489
1238.52	450
1236.66	486.5
1234.8	430
1232.93	412
1231.07	441
1229.2	409
1227.34	424.5
1225.47	405
1223.6	441.5
1221.74	393
1219.87	413.5
1218	389
1216.13	393.5
1214.26	409
1212.39	384
1210.53	409
1208.65	413.5
1206.78	419.5
1204.91	369.5
1203.04	394
1201.17	392
1199.3	387
1197.42	391
1195.55	415
1193.68	392.5
1191.8	374
1189.93	365.5
1188.05	385
1186.17	390.5
1184.3	378.5
1182.42	386.5
1180.54	411.5
1178.67	393
1176.79	358
1174.91	395
1173.03	380
1171.15	416
1169.27	394
1167.39	407
1165.51	382
1163.63	382
1161.75	417
1159.86	420.5
1157.98	406
1156.1	406.5
1154.21	383
1152.33	424.5
1150.44	410.5
1148.56	415
1146.67	415.5
1144.79	395
1142.9	401.5
1141.01	396
1139.12	400
1137.24	400
1135.35	431
1133.46	428
1131.57	489.5
1129.68	484
1127.79	485
1125.9	519
1124.01	512.5
1122.12	506
1120.22	505
1118.33	490
1116.44	467.5
1114.54	503.5
1112.65	513.5
1110.75	495
1108.86	473
1106.96	482.5
1105.07	482
1103.17	510.5
1101.27	540
1099.38	545.5
1097.48	602
1095.58	617
1093.68	597
1091.78	644
1089.88	648
1087.98	605
1086.08	691.5
1084.18	676
1082.28	676
1080.38	676.5
1078.47	666
1076.57	646.5
1074.67	650.5
1072.76	680
1070.86	671.5
1068.95	671.5
1067.05	686.5
1065.14	665
1063.24	666
1061.33	642
1059.42	617.5
1057.51	563.5
1055.6	524.5
1053.7	537.5
1051.79	509
1049.88	517
1047.97	508
1046.06	490
1044.14	494
1042.23	485.5
1040.32	507
1038.41	486.5
1036.5	493
1034.58	515
1032.67	489
1030.75	497.5
1028.84	500
1026.92	509.5
1025.01	460.5
1023.09	476
1021.17	500
1019.26	486
1017.34	459.5
1015.42	462
1013.5	479
1011.58	453
1009.66	464
1007.74	454
1005.82	474.5
1003.9	456.5
1001.98	435.5
1000.06	460.5
998.134	440.5
996.212	483
994.288	470
992.364	465
990.44	481
988.515	490.5
986.589	511.5
984.663	529
982.737	538.5
980.81	495.5
978.883	585.5
976.955	590
975.027	585
973.098	592
971.169	585
969.239	587.5
967.308	595
965.378	599.5
963.447	596.5
961.516	600.5
959.583	572
957.65	593.5
955.718	640
953.784	593
951.85	615
949.916	644.5
947.981	612
946.045	604
944.109	653.5
942.173	675
940.236	657
938.298	650.5
936.36	672.5
934.422	606.5
932.484	620.5
930.544	578.5
928.604	586.5
926.664	525
924.724	529
922.782	509
920.84	566.5
918.898	525.5
916.955	530.5
915.012	510
913.068	530
911.124	497.5
909.18	537
907.235	542
905.289	523
903.343	525
901.397	530
899.45	518
897.502	531
895.554	540
893.605	571.5
891.657	602
889.707	591
887.758	581
885.807	605.5
883.856	570.5
881.905	592
879.953	576.5
878.001	593.5
876.048	605.5
874.094	593.5
872.14	587.5
870.186	601
868.232	596
866.276	578.5
864.321	596.5
862.365	572
860.408	530
858.451	582
856.493	564.5
854.535	587.5
852.576	540
850.617	576.5
848.658	577
846.698	570
844.737	549
842.776	537
840.814	559.5
838.852	524
836.89	523
834.927	508.5
832.963	500.5
830.999	474
829.035	506
827.07	488
825.105	463.5
823.139	429
821.172	464.5
819.206	457
817.238	439
815.27	430
813.301	442.5
811.333	430
809.363	346
807.394	394
805.424	413
803.453	360
801.482	375
799.509	354
797.538	341
795.565	354.5
793.592	366
791.618	368
789.643	345.5
787.669	349
785.693	323
783.718	288
781.742	350.5
779.765	318
777.788	340
775.811	335
773.832	322
771.853	319
769.875	342.5
767.895	323
765.915	337
763.934	341.5
761.953	313
759.972	321.5
757.99	366
756.007	342
754.024	319
752.041	335.5
750.056	322.5
748.072	320.5
746.087	340.5
744.102	300
742.116	312
740.13	315
738.143	314.5
736.155	317.5
734.167	325
732.179	312
730.19	324
728.2	356.5
726.21	372
724.22	318
722.229	333
720.237	342
718.246	292
716.253	325.5
714.26	322
712.267	309.5
710.273	319
708.279	285
706.284	312
704.289	292
702.293	306
700.296	318
698.3	296
696.303	298
694.305	288.5
692.307	295
690.307	322
688.308	297.5
686.309	265.5
684.308	298.5
682.308	309
680.306	299.5
678.304	285.5
676.302	281
674.3	313.5
672.296	328.5
670.293	304
668.289	291
666.284	285.5
664.278	314
662.273	312
660.266	317
658.26	306
656.252	318
654.244	295
652.237	303.5
650.227	300
648.218	318
646.209	333
644.198	316
642.188	344
640.177	332.5
638.165	294
636.153	325
634.14	313
632.128	336
630.113	324
628.099	343
626.085	348.5
624.07	360
622.054	361
620.038	342
618.021	352
616.004	344
613.986	344
611.968	341
609.949	390.5
607.93	367.5
605.911	367
603.891	350.5
601.87	352.5
599.848	354
597.827	343
595.805	315.5
593.782	336.5
591.759	367
589.735	341.5
587.711	344.5
585.687	338
583.661	316
581.636	319.5
579.609	347
577.583	339
575.555	304
573.527	345.5
571.5	311
569.471	363.5
567.441	331
565.412	311
563.382	348.5
561.351	393.5
559.32	351
557.289	395
555.257	361.5
553.223	371.5
551.19	380
549.157	374
547.122	425
545.088	442
543.053	456
541.017	481
538.981	553.5
536.943	588
534.907	702
532.869	895
530.831	1242
528.792	1867.5
526.752	2828
524.713	4317.5
522.673	5597.5
520.632	5873.5
518.591	5052
516.549	3642
514.507	2510.5
512.464	1661
510.42	1129
508.377	853.5
506.332	703
504.288	558
502.242	547
500.196	533.5
498.15	502
496.104	479
494.056	459.5
492.008	454
489.96	442
487.911	442
485.862	442
483.812	431.5
481.761	409.5
479.71	428
477.659	413
475.607	444
473.555	410
471.502	406
469.448	414
467.395	384.5
465.34	404.5
463.285	381
461.23	395.5
459.174	419
457.118	414
455.061	403
453.003	415.5
450.945	435.5
448.887	416.5
446.828	455
444.768	424
442.708	467
440.647	411.5
438.587	469
436.525	429
434.463	418
432.4	435
430.337	423.5
428.274	446.5
426.21	436
424.145	443
422.079	446
420.014	464.5
417.948	457
415.882	457
413.814	452
411.746	450.5
409.679	483
407.609	469
405.54	486.5
403.47	435.5
401.401	468.5
399.329	456.5
397.258	486.5
395.187	454
393.114	462.5
391.041	448.5
388.968	472
386.895	482
384.82	451.5
382.745	444
380.67	473.5
378.594	460
376.517	503
374.44	468
372.363	511
370.286	520
368.207	482
366.128	482
364.049	517.5
361.969	497
359.888	514
357.807	511
355.725	502.5
353.643	497
351.561	525
349.477	505
347.394	513
345.31	526.5
343.226	521.5
341.141	507.5
339.055	525
336.968	541.5
334.882	557.5
332.795	571.5
330.707	538.5
328.618	593
326.53	563.5
324.44	603.5
322.351	607.5
320.26	604
318.17	594.5
316.078	644.5
313.987	658
311.895	694.5
309.802	716
307.708	733
305.614	754
303.52	763
301.425	752
299.329	781.5
297.233	715.5
295.137	731
293.039	674
290.942	658
288.844	678
286.745	633
284.647	643.5
282.546	642.5
280.446	639
278.346	659
276.245	641
274.143	650.5
272.041	633
269.939	687
267.835	706
265.731	687
263.627	673
261.522	711
259.417	717.5
257.311	704.5
255.204	735
253.098	727
250.99	717
248.882	735
246.774	724.5
244.664	726
242.555	760.5
240.445	749
238.334	760
236.223	777.5
234.112	796
232	786.5
229.888	784
227.775	793.5
225.661	797
223.546	809.5
221.431	789
219.316	848
217.201	819.5
215.084	833
212.967	808.5
210.85	855
208.732	862
206.614	835
204.495	853
202.375	861.5
200.256	864
198.135	873
196.014	837
193.893	831.5
191.771	825
189.648	857
187.525	844
185.401	853
183.277	855
181.152	850.5
179.027	874.5
176.901	859.5
174.775	897.5
172.648	892
170.521	909
168.393	892
166.265	957.5
164.136	951.5
162.007	961.5
159.876	941.5
157.746	983
155.615	994
153.483	1035
151.351	1056
149.219	1098.5
147.086	1039
144.952	1084
142.818	1132
140.684	1190.5
138.548	1249.5
136.413	1219
134.276	1300
132.139	1317
130.002	1387
127.864	1444.5
125.725	1463
123.587	1520.5
121.447	1567.5
119.307	1632.5
117.166	1748.5
115.026	1775
112.885	1838
110.743	1937.5
108.6	1897
106.456	1985.5
104.313	2005
102.169	2019.5
100.023	1930
97.8789	1869
95.7328	1761.5
93.5869	1550
91.4392	1343
89.2919	1059
87.1447	917
84.9959	735
