3528.51	318.5
3527.23	321
3525.95	346
3524.67	337
3523.39	343
3522.1	361
3520.82	364
3519.54	311
3518.26	346
3516.97	355.5
3515.69	328.5
3514.4	352
3513.12	384
3511.84	360.5
3510.55	348.5
3509.26	355
3507.98	338
3506.69	365.5
3505.41	391
3504.12	343
3502.83	341.5
3501.54	397
3500.26	368
3498.97	395
3497.68	381
3496.39	389
3495.1	380
3493.81	421
3492.52	378.5
3491.23	392
3489.94	426.5
3488.65	410
3487.36	441.5
3486.07	441.5
3484.78	447
3483.49	452
3482.19	433
3480.9	474.5
3479.61	491.5
3478.31	490
3477.02	484
3475.73	487
3474.43	503
3473.14	477.5
3471.84	473
3470.54	502.5
3469.25	501.5
3467.95	516
3466.66	479.5
3465.36	499
3464.06	518
3462.76	507.5
3461.46	526.5
3460.17	516.5
3458.87	507.5
3457.57	529
3456.27	533.5
3454.97	530
3453.67	526
3452.37	536.5
3451.07	541
3449.77	552
3448.47	569
3447.16	548
3445.86	582.5
3444.56	588.5
3443.26	610
3441.95	590
3440.65	615
3439.35	619.5
3438.04	638
3436.74	613
3435.43	645
3434.13	667.5
3432.82	665
3431.52	681
3430.21	718.5
3428.9	695.5
3427.6	667
3426.29	746
3424.98	753
3423.67	775
3422.36	703
3421.06	770.5
3419.75	778
3418.44	755
3417.13	795
3415.82	779
3414.51	806
3413.2	843
3411.88	820
3410.57	824
3409.26	831
3407.95	849
3406.64	869.5
3405.32	848
3404.01	864
3402.7	874
3401.38	862.5
3400.07	881
3398.75	895
3397.44	938.5
3396.12	897
3394.81	900
3393.49	904
3392.18	954
3390.86	894.5
3389.54	929
3388.23	888
3386.91	959.5
3385.59	968
3384.27	991
3382.95	1002
3381.63	966
3380.31	1049
3378.99	1034
3377.67	1039
3376.35	1028
3375.03	1066
3373.71	1037
3372.39	1039.5
3371.07	1037
3369.75	1077.5
3368.42	1082.5
3367.1	1086
3365.78	1115.5
3364.45	1090.5
3363.13	1104.5
3361.81	1119
3360.48	1123
3359.16	1154
3357.83	1134
3356.51	1114
3355.18	1159
3353.85	1154
3352.53	1175
3351.2	1120
3349.87	1172.5
3348.54	1166.5
3347.22	1162
3345.89	1179.5
3344.56	1178
3343.23	1196.5
3341.9	1206.5
3340.57	1201.5
3339.24	1190
3337.91	1157
3336.58	1212
3335.25	1222.5
3333.92	1199
3332.58	1223.5
3331.25	1229.5
3329.92	1211
3328.59	1275
3327.25	1264
3325.92	1276
3324.58	1238
3323.25	1275
3321.92	1267
3320.58	1296
3319.25	1276
3317.91	1332
3316.57	1296
3315.24	1287
3313.9	1351
3312.56	1290
3311.23	1349
3309.89	1342
3308.55	1345
3307.21	1347
3305.87	1309
3304.53	1348
3303.19	1361
3301.85	1417.5
3300.51	1376
3299.17	1338
3297.83	1348
3296.49	1388
3295.15	1349
3293.81	1376
3292.46	1384
3291.12	1414
3289.78	1416
3288.43	1427
3287.09	1380
3285.75	1452.5
3284.4	1434
3283.06	1458
3281.71	1443
3280.37	1464
3279.02	1429
3277.67	1441.5
3276.33	1477
3274.98	1419
3273.63	1495.5
3272.28	1512.5
3270.94	1515.5
3269.59	1491
3268.24	1535.5
3266.89	1528
3265.54	1561
3264.19	1591.5
3262.84	1598
3261.49	1571
3260.14	1604
3258.79	1665
3257.44	1654
3256.08	1669
3254.73	1733
3253.38	1696
3252.03	1795.5
3250.67	1828
3249.32	1878
3247.96	1882.5
3246.61	1958.5
3245.26	2030
3243.9	2079
3242.54	2133
3241.19	2194
3239.83	2233
3238.48	2302.5
3237.12	2357.5
3235.76	2444
3234.41	2497.5
3233.05	2588
3231.69	2586
3230.33	2644
3228.97	2716
3227.61	2805
3226.25	2803
3224.89	2880
3223.53	2906
3222.17	2974
3220.81	3047
3219.45	3074
3218.09	3081
3216.72	3137
3215.36	3125
3214	3182.5
3212.63	3231
3211.27	3271.5
3209.91	3261
3208.54	3260
3207.18	3258.5
3205.81	3243
3204.45	3362.5
3203.08	3352.5
3201.71	3358
3200.35	3359.5
3198.98	3339
3197.61	3397
3196.25	3432.5
3194.88	3433
3193.51	3377
3192.14	3505.5
3190.77	3431
3189.4	3470
3188.03	3471
3186.66	3522
3185.29	3547.5
3183.92	3489
3182.55	3535.5
3181.18	3484
3179.81	3569
3178.44	3635
3177.06	3656
3175.69	3683
3174.32	3662
3172.94	3696
3171.57	3764.5
3170.2	3752.5
3168.82	3810.5
3167.45	3863
3166.07	3852
3164.69	3841
3163.32	3924
3161.94	3934
3160.56	3936
3159.19	3985
3157.81	4025
3156.43	4072
3155.05	4081.5
3153.67	4128
3152.3	4131.5
3150.92	4190
3149.54	4216.5
3148.16	4315
3146.78	4216
3145.4	4218
3144.01	4308.5
3142.63	4390
3141.25	4373
3139.87	4395.5
3138.49	4458.5
3137.1	4425.5
3135.72	4547.5
3134.34	4592.5
3132.95	4556
3131.57	4621.5
3130.18	4656
3128.8	4653
3127.41	4648
3126.03	4683
3124.64	4746.5
3123.25	4759.5
3121.87	4826.5
3120.48	4785
3119.09	4880.5
3117.7	4911.5
3116.32	4986.5
3114.93	4951
3113.54	4907
3112.15	5024
3110.76	5027.5
3109.37	4986
3107.98	5026
3106.59	5018
3105.2	5062
3103.8	5078
3102.41	5124.5
3101.02	5126
3099.63	5183.5
3098.23	5163
3096.84	5228.5
3095.45	5191
3094.05	5225.5
3092.66	5302.5
3091.26	5230.5
3089.87	5257.5
3088.47	5295
3087.08	5234
3085.68	5381.5
3084.28	5225
3082.89	5347
3081.49	5403
3080.09	5368
3078.69	5363.5
3077.3	5384.5
3075.9	5365
3074.5	5436
3073.1	5469.5
3071.7	5328
3070.3	5488
3068.9	5451.5
3067.5	5474.5
3066.09	5515
3064.69	5486.5
3063.29	5486
3061.89	5546
3060.48	5553.5
3059.08	5551
3057.68	5579.5
3056.27	5587.5
3054.87	5574
3053.46	5647
3052.06	5616
3050.65	5619
3049.25	5610
3047.84	5635
3046.44	5647
3045.03	5720.5
3043.62	5686.5
3042.21	5735
3040.81	5805
3039.4	5745
3037.99	5812
3036.58	5818
3035.17	5894
3033.76	5843
3032.35	5784
3030.94	5842.5
3029.53	5837
3028.12	5903.5
3026.71	5899.5
3025.29	5917
3023.88	5916
3022.47	5958.5
3021.06	5941
3019.64	5963
3018.23	5997
3016.82	5988.5
3015.4	6047
3013.99	5989.5
3012.57	6022
3011.15	5983
3009.74	6037.5
3008.32	6067.5
3006.91	6068
3005.49	6101
3004.07	6115.5
3002.65	6155
3001.24	6206
2999.82	6186
2998.4	6250
2996.98	6175
2995.56	6319
2994.14	6360
2992.72	6351
2991.3	6403
2989.88	6314
2988.46	6438
2987.03	6472.5
2985.61	6478
2984.19	6528
2982.77	6593.5
2981.34	6598.5
2979.92	6614
2978.49	6581
2977.07	6639.5
2975.65	6696
2974.22	6646
2972.79	6776
2971.37	6819
2969.94	6805
2968.52	6873.5
2967.09	6847
2965.66	6819.5
2964.23	6915
2962.81	6854
2961.38	6879
2959.95	6962
2958.52	6927
2957.09	6934
2955.66	6953
2954.23	7004
2952.8	6907
2951.37	7057
2949.94	7043
2948.5	6986
2947.07	7095.5
2945.64	6980
2944.21	7061
2942.77	7081
2941.34	7105.5
2939.91	7092
2938.47	7125
2937.04	7181.5
2935.6	7252
2934.17	7269.5
2932.73	7286.5
2931.29	7226
2929.86	7342
2928.42	7387
2926.98	7368
2925.55	7428.5
2924.11	7451.5
2922.67	7478
2921.23	7492.5
2919.79	7436.5
2918.35	7517
2916.91	7531
2915.47	7544.5
2914.03	7428
2912.59	7543
2911.15	7531
2909.71	7618
2908.26	7551
2906.82	7590
2905.38	7696
2903.94	7734
2902.49	7650
2901.05	7655
2899.6	7707
2898.16	7698.5
2896.71	7749.5
2895.27	7787.5
2893.82	7693
2892.38	7785
2890.93	7717
2889.48	7723
2888.03	7767
2886.59	7628
2885.14	7723.5
2883.69	7775
2882.24	7783.5
2880.79	7751
2879.34	7857.5
2877.89	7814
2876.44	7822
2874.99	7983
2873.54	7902
2872.09	7827
2870.64	7862
2869.18	7921
2867.73	7855
2866.28	7911
2864.83	7848.5
2863.37	7844
2861.92	7856
2860.46	7926
2859.01	7829
2857.55	7892
2856.1	7863.5
2854.64	7849
2853.19	7925.5
2851.73	7936
2850.27	7930.5
2848.81	7860
2847.36	7851
2845.9	7955.5
2844.44	7936
2842.98	7908.5
2841.52	7872.5
2840.06	7769
2838.6	7763
2837.14	7819
2835.68	7649
2834.22	7751
2832.76	7628
2831.3	7655.5
2829.83	7675
2828.37	7725.5
2826.91	7699
2825.44	7758
2823.98	7700.5
2822.52	7602.5
2821.05	7715.5
2819.59	7648.5
2818.12	7564
2816.66	7585.5
2815.19	7558.5
2813.72	7522
2812.26	7470.5
2810.79	7574
2809.32	7469
2807.85	7401
2806.38	7440.5
2804.92	7495
2803.45	7489
2801.98	7550
2800.51	7435
2799.04	7374
2797.57	7460
2796.1	7400
2794.62	7354
2793.15	7347
2791.68	7320
2790.21	7269
2788.73	7410.5
2787.26	7404
2785.79	7290
2784.31	7371
2782.84	7498
2781.36	7334
2779.89	7463.5
2778.41	7403.5
2776.94	7430
2775.46	7444
2773.99	7447
2772.51	7444
2771.03	7468
2769.55	7441.5
2768.07	7394
2766.6	7413
2765.12	7440
2763.64	7484
2762.16	7426.5
2760.68	7386
2759.2	7453
2757.72	7451
2756.24	7476
2754.75	7532
2753.27	7482.5
2751.79	7389
2750.31	7440
2748.82	7488
2747.34	7393
2745.86	7464
2744.37	7437
2742.89	7470
2741.4	7266
2739.92	7464
2738.43	7426
2736.94	7378
2735.46	7420
2733.97	7343
2732.48	7417
2731	7438
2729.51	7363
2728.02	7473
2726.53	7409
2725.04	7363
2723.55	7446.5
2722.06	7333
2720.57	7316
2719.08	7416.5
2717.59	7406
2716.1	7378
2714.61	7362
2713.11	7393.5
2711.62	7390.5
2710.13	7405
2708.64	7409.5
2707.14	7366
2705.65	7410
2704.15	7381
2702.66	7334
2701.16	7381
2699.67	7348.5
2698.17	7418
2696.67	7326.5
2695.18	7357.5
2693.68	7261
2692.18	7354
2690.69	7379.5
2689.19	7261
2687.69	7274
2686.19	7210
2684.69	7345
2683.19	7245
2681.69	7203
2680.19	7162
2678.69	7144
2677.19	7267
2675.68	7253
2674.18	7193.5
2672.68	7071
2671.18	7118
2669.67	7103
2668.17	7102.5
2666.66	7157.5
2665.16	7126
2663.66	7125.5
2662.15	6997
2660.64	7083
2659.14	7122.5
2657.63	7077
2656.13	6955
2654.62	6937
2653.11	7149
2651.6	7045
2650.09	6932
2648.58	7022
2647.08	6987.5
2645.57	6976
2644.06	6968.5
2642.55	6914.5
2641.04	6973
2639.52	6886
2638.01	6867.5
2636.5	6849.5
2634.99	6824
2633.48	6854
2631.96	6823
2630.45	6802
2628.94	6797.5
2627.42	6756
2625.91	6737.5
2624.39	6739
2622.88	6742
2621.36	6777
2619.85	6735.5
2618.33	6764
2616.81	6713
2615.3	6719
2613.78	6693.5
2612.26	6707.5
2610.74	6665
2609.22	6626
2607.7	6634
2606.18	6637
2604.66	6528
2603.14	6397
2601.62	6602
2600.1	6393
2598.58	6431
2597.06	6362
2595.54	6468.5
2594.01	6395
2592.49	6393
2590.97	6456.5
2589.44	6460.5
2587.92	6369
2586.39	6434.5
2584.87	6374
2583.34	6390.5
2581.82	6419
2580.29	6376.5
2578.76	6371.5
2577.24	6349.5
2575.71	6416.5
2574.18	6348.5
2572.65	6368
2571.13	6393
2569.6	6392.5
2568.07	6304
2566.54	6259
2565.01	6324
2563.48	6267.5
2561.95	6203
2560.42	6222
2558.88	6208.5
2557.35	6224
2555.82	6157
2554.29	6179
2552.75	6197
2551.22	6072
2549.69	6099.5
2548.15	6090
2546.62	6128.5
2545.08	6154
2543.55	6096.5
2542.01	6018
2540.47	5863
2538.94	6048
2537.4	5974.5
2535.86	6060
2534.33	5970.5
2532.79	5995.5
2531.25	5995.5
2529.71	5958
2528.17	5816
2526.63	5846
2525.09	5861
2523.55	5921
2522.01	5827
2520.47	5927.5
2518.92	5829
2517.38	5825
2515.84	5837
2514.3	5797
2512.75	5733
2511.21	5798.5
2509.67	5662
2508.12	5672.5
2506.58	5657
2505.03	5694.5
2503.49	5642.5
2501.94	5597
2500.39	5733.5
2498.85	5667
2497.3	5626
2495.75	5536.5
2494.2	5568
2492.65	5515
2491.11	5471
2489.56	5513
2488.01	5481
2486.46	5513
2484.91	5507
2483.36	5414
2481.8	5429
2480.25	5489
2478.7	5466.5
2477.15	5422.5
2475.6	5386.5
2474.04	5279
2472.49	5357
2470.93	5326
2469.38	5360
2467.83	5311.5
2466.27	5205
2464.71	5253.5
2463.16	5158
2461.6	5269
2460.05	5125
2458.49	5165.5
2456.93	5133.5
2455.37	5136.5
2453.81	5116
2452.26	5080
2450.7	5001.5
2449.14	4947
2447.58	4910
2446.02	4910
2444.46	4884
2442.9	4925.5
2441.33	4914.5
2439.77	4958
2438.21	4863
2436.65	4901.5
2435.08	4843
2433.52	4837.5
2431.96	4797
2430.39	4874
2428.83	4835.5
2427.26	4858
2425.7	4816.5
2424.13	4792
2422.56	4794
2421	4736
2419.43	4706.5
2417.86	4645
2416.3	4680
2414.73	4732.5
2413.16	4655
2411.59	4692.5
2410.02	4649
2408.45	4624.5
2406.88	4633
2405.31	4601
2403.74	4664
2402.17	4674
2400.6	4608
2399.02	4557
2397.45	4563
2395.88	4542
2394.3	4571
2392.73	4545
2391.16	4497
2389.58	4500.5
2388.01	4465
2386.43	4462
2384.86	4486
2383.28	4491
2381.7	4468
2380.13	4387
2378.55	4492.5
2376.97	4446.5
2375.39	4488
2373.81	4426.5
2372.23	4498
2370.65	4400
2369.07	4440
2367.49	4428
2365.91	4419
2364.33	4396
2362.75	4414.5
2361.17	4381
2359.59	4389
2358.01	4365.5
2356.42	4255
2354.84	4390.5
2353.25	4273
2351.67	4338
2350.09	4354
2348.5	4339
2346.92	4302.5
2345.33	4293.5
2343.74	4309.5
2342.16	4273
2340.57	4308
2338.98	4221
2337.39	4281.5
2335.81	4304.5
2334.22	4322
2332.63	4210
2331.04	4219
2329.45	4173
2327.86	4130
2326.27	4139
2324.68	4165.5
2323.09	4189
2321.49	4133
2319.9	4093
2318.31	4042
2316.72	4119.5
2315.12	4051
2313.53	4026
2311.93	4069.5
2310.34	4068.5
2308.74	4029
2307.15	4024.5
2305.55	4034.5
2303.96	3957.5
2302.36	3882
2300.76	3952
2299.17	3903
2297.57	3857
2295.97	3867
2294.37	3908.5
2292.77	3868
2291.17	3838
2289.57	3828.5
2287.97	3838
2286.37	3742
2284.77	3800.5
2283.17	3765
2281.57	3789
2279.96	3768
2278.36	3762.5
2276.76	3802
2275.15	3754
2273.55	3720
2271.95	3736
2270.34	3679
2268.74	3684.5
2267.13	3719
2265.52	3707.5
2263.92	3654
2262.31	3639
2260.7	3602
2259.1	3612
2257.49	3600.5
2255.88	3575
2254.27	3595
2252.66	3555
2251.05	3614.5
2249.44	3626
2247.83	3604
2246.22	3580.5
2244.61	3530
2243	3582
2241.39	3564
2239.77	3564
2238.16	3564.5
2236.55	3546
2234.93	3539
2233.32	3466
2231.7	3471
2230.09	3500
2228.47	3463
2226.86	3416.5
2225.24	3467.5
2223.63	3414.5
2222.01	3386
2220.39	3424
2218.77	3391
2217.16	3344
2215.54	3381.5
2213.92	3345.5
2212.3	3322.5
2210.68	3335
2209.06	3310
2207.44	3210
2205.82	3259
2204.19	3248
2202.57	3301
2200.95	3259
2199.33	3209
2197.7	3194
2196.08	3219
2194.46	3180.5
2192.83	3127
2191.21	3168.5
2189.58	3211
2187.96	3195.5
2186.33	3152
2184.7	3146
2183.08	3133
2181.45	3126
2179.82	3122
2178.19	3076
2176.57	3126
2174.94	2984
2173.31	3029
2171.68	3103
2170.05	3002.5
2168.42	2989.5
2166.79	3012
2165.16	3037.5
2163.52	3005
2161.89	2972.5
2160.26	2974
2158.63	2994
2156.99	2929
2155.36	2901.5
2153.73	2932.5
2152.09	2894.5
2150.46	2919
2148.82	2908.5
2147.18	2852
2145.55	2933.5
2143.91	2916
2142.27	2825
2140.64	2832.5
2139	2867.5
2137.36	2818
2135.72	2799
2134.08	2772
2132.44	2747
2130.8	2783.5
2129.16	2706
2127.52	2708.5
2125.88	2704.5
2124.24	2706.5
2122.6	2710
2120.95	2668.5
2119.31	2684.5
2117.67	2636.5
2116.02	2631
2114.38	2614.5
2112.74	2593
2111.09	2580
2109.45	2577
2107.8	2573
2106.15	2629
2104.51	2547
2102.86	2530
2101.21	2516
2099.56	2535
2097.92	2470
2096.27	2498
2094.62	2503
2092.97	2534
2091.32	2434
2089.67	2515
2088.02	2487
2086.37	2503.5
2084.72	2489
2083.06	2483
2081.41	2529.5
2079.76	2471
2078.1	2398
2076.45	2461.5
2074.8	2417
2073.14	2447
2071.49	2444
2069.83	2448
2068.18	2506.5
2066.52	2467.5
2064.86	2416.5
2063.21	2400.5
2061.55	2396
2059.89	2414
2058.23	2427
2056.57	2368
2054.92	2392
2053.26	2378
2051.6	2371.5
2049.94	2375.5
2048.27	2353.5
2046.61	2310
2044.95	2385
2043.29	2345
2041.63	2293
2039.97	2290
2038.3	2259
2036.64	2251
2034.97	2239
2033.31	2214
2031.64	2253
2029.98	2235
2028.31	2196
2026.65	2199
2024.98	2176.5
2023.31	2148
2021.65	2195.5
2019.98	2185.5
2018.31	2146
2016.64	2176
2014.97	2089
2013.3	2102
2011.63	2138
2009.96	2123.5
2008.29	2137
2006.62	2131
2004.95	2107.5
2003.28	2072
2001.6	2112
1999.93	2080
1998.26	2073
1996.58	2115
1994.91	2113.5
1993.24	2092
1991.56	2067.5
1989.89	2055
1988.21	2043.5
1986.53	2085
1984.86	1996
1983.18	2001
1981.5	2031
1979.82	2026
1978.15	1991.5
1976.47	1975
1974.79	1970.5
1973.11	1979.5
1971.43	1941.5
1969.75	1961
1968.07	1954.5
1966.38	1900
1964.7	1860
1963.02	1945
1961.34	1834
1959.66	1831
1957.97	1886
1956.29	1932.5
1954.6	1831
1952.92	1829
1951.23	1886
1949.55	1804.5
1947.86	1829
1946.18	1833
1944.49	1814
1942.8	1754
1941.11	1808.5
1939.43	1805
1937.74	1806
1936.05	1784
1934.36	1775.5
1932.67	1749
1930.98	1727
1929.29	1797
1927.6	1738
1925.91	1715
1924.21	1706
1922.52	1706
1920.83	1666
1919.14	1671
1917.44	1700
1915.75	1680.5
1914.05	1704.5
1912.36	1642
1910.66	1706
1908.97	1716.5
1907.27	1682.5
1905.58	1659
1903.88	1643
1902.18	1639
1900.48	1647
1898.79	1657
1897.09	1658
1895.39	1601
1893.69	1589
1891.99	1608
1890.29	1583
1888.59	1557
1886.89	1559.5
1885.18	1549
1883.48	1560
1881.78	1546.5
1880.08	1512
1878.37	1538.5
1876.67	1466
1874.96	1522.5
1873.26	1489
1871.55	1482
1869.85	1532.5
1868.14	1467
1866.44	1449.5
1864.73	1444
1863.02	1464.5
1861.32	1482.5
1859.61	1423
1857.9	1443
1856.19	1463.5
1854.48	1418
1852.77	1408
1851.06	1441
1849.35	1438.5
1847.64	1445
1845.93	1423
1844.21	1394
1842.5	1372
1840.79	1402
1839.08	1383
1837.36	1380
1835.65	1385
1833.93	1364
1832.22	1373
1830.5	1400
1828.79	1328
1827.07	1403
1825.36	1330
1823.64	1354.5
1821.92	1317
1820.2	1282
1818.48	1314
1816.77	1271
1815.05	1316
1813.33	1266
1811.61	1309
1809.89	1255
1808.16	1282
1806.44	1267
1804.72	1285
1803	1258.5
1801.28	1207
1799.55	1263.5
1797.83	1253.5
1796.11	1230.5
1794.38	1204.5
1792.66	1243
1790.93	1219
1789.21	1235.5
1787.48	1188
1785.75	1196.5
1784.03	1188
1782.3	1184
1780.57	1100
1778.84	1211
1777.11	1163
1775.38	1199
1773.66	1183.5
1771.93	1148
1770.19	1193
1768.46	1168
1766.73	1182
1765	1158
1763.27	1188
1761.54	1169
1759.8	1185
1758.07	1174
1756.34	1177
1754.6	1210.5
1752.87	1199
1751.13	1151
1749.4	1247
1747.66	1198
1745.92	1180
1744.19	1203
1742.45	1214.5
1740.71	1218
1738.97	1151
1737.23	1136.5
1735.49	1126
1733.75	1139
1732.01	1116
1730.27	1074.5
1728.53	1124.5
1726.79	1140.5
1725.05	1068
1723.31	1074.5
1721.57	1091.5
1719.82	1054
1718.08	1078
1716.34	1067.5
1714.59	1068
1712.85	1068
1711.1	1052
1709.36	1064.5
1707.61	1033
1705.86	1047
1704.12	1033.5
1702.37	974
1700.62	1042.5
1698.87	1002
1697.12	984
1695.37	972
1693.62	971.5
1691.87	993.5
1690.12	1005
1688.37	956
1686.62	952
1684.87	996
1683.12	905
1681.36	958
1679.61	978.5
1677.86	958
1676.1	999.5
1674.35	994
1672.59	1020
1670.84	982.5
1669.08	999
1667.33	1064
1665.57	1055
1663.81	1083
1662.06	1120
1660.3	1110
1658.54	1174
1656.78	1177
1655.02	1181.5
1653.26	1134
1651.5	1150.5
1649.74	1097
1647.98	1038
1646.22	1058
1644.46	1017.5
1642.7	990
1640.93	956.5
1639.17	922.5
1637.41	955
1635.64	916
1633.88	915
1632.11	905
1630.35	892
1628.58	901
1626.81	877
1625.05	882
1623.28	886
1621.51	897
1619.75	874
1617.98	817
1616.21	867
1614.44	839
1612.67	836.5
1610.9	875
1609.13	824
1607.36	861
1605.58	810
1603.81	824
1602.04	822.5
1600.27	858.5
1598.49	829
1596.72	878.5
1594.95	824
1593.17	806
1591.4	804
1589.62	854
1587.84	866
1586.07	769
1584.29	826.5
1582.51	809
1580.74	825.5
1578.96	805
1577.18	802
1575.4	830.5
1573.62	747
1571.84	771
1570.06	784
1568.28	775
1566.5	754
1564.72	820.5
1562.93	777
1561.15	775
1559.37	761
1557.58	767
1555.8	788.5
1554.02	793
1552.23	791.5
1550.45	732
1548.66	737.5
1546.87	745
1545.09	721
1543.3	781
1541.51	714
1539.72	766
1537.94	721.5
1536.15	738
1534.36	732
1532.57	749
1530.78	691
1528.99	741.5
1527.2	749
1525.4	718.5
1523.61	716
1521.82	752.5
1520.03	719.5
1518.23	724.5
1516.44	696
1514.65	662
1512.85	678.5
1511.06	706
1509.26	737.5
1507.46	712
1505.67	749
1503.87	696
1502.07	728
1500.28	740
1498.48	712
1496.68	716
1494.88	714
1493.08	715
1491.28	727
1489.48	743
1487.68	780
1485.88	760
1484.08	798
1482.27	765
1480.47	833
1478.67	843
1476.86	846.5
1475.06	882.5
1473.25	930
1471.45	961.5
1469.64	990.5
1467.84	1000
1466.03	1087.5
1464.23	1150.5
1462.42	1129.5
1460.61	1190
1458.8	1212
1456.99	1249
1455.18	1290.5
1453.37	1301
1451.56	1357.5
1449.75	1384
1447.94	1400
1446.13	1480
1444.32	1496
1442.51	1535
1440.7	1541
1438.88	1527.5
1437.07	1455
1435.26	1373
1433.44	1236.5
1431.63	1160.5
1429.81	1073
1427.99	981.5
1426.18	869
1424.36	897
1422.54	825
1420.73	825
1418.91	814.5
1417.09	760
1415.27	757.5
1413.45	711.5
1411.63	676
1409.81	669
1407.99	676
1406.17	684.5
1404.35	686.5
1402.53	654
1400.7	633
1398.88	662.5
1397.06	650
1395.23	653
1393.41	640
1391.58	601
1389.76	639
1387.93	623
1386.11	617
1384.28	624
1382.45	629
1380.62	634
1378.8	655.5
1376.97	635.5
1375.14	630
1373.31	644
1371.48	655
1369.65	654
1367.82	683
1365.99	627
1364.16	647
1362.32	650.5
1360.49	609.5
1358.66	652
1356.82	634
1354.99	633.5
1353.16	648
1351.32	629
1349.48	606
1347.65	625
1345.81	624.5
1343.98	668
1342.14	630
1340.3	627
1338.46	647
1336.62	634
1334.79	642
1332.95	665
1331.11	649
1329.27	702.5
1327.42	725
1325.58	723
1323.74	756.5
1321.9	802.5
1320.06	816.5
1318.21	847
1316.37	876
1314.53	887
1312.68	976
1310.84	975
1308.99	1030
1307.15	1145
1305.3	1131
1303.45	1114
1301.61	1176.5
1299.76	1158.5
1297.91	1102.5
1296.06	1084
1294.21	1024
1292.36	914
1290.51	907
1288.66	837.5
1286.81	820.5
1284.96	818
1283.11	791
1281.26	830
1279.4	817
1277.55	807
1275.7	773
1273.84	786
1271.99	811
1270.13	785
1268.28	765
1266.42	798
1264.56	755.5
1262.71	804
1260.85	754
1258.99	712
1257.13	742.5
1255.27	677
1253.41	686.5
1251.56	683
1249.7	642
1247.83	643
1245.97	657.5
1244.11	628
1242.25	575
1240.39	595
1238.52	617.5
1236.66	573
1234.8	587
1232.93	598
1231.07	564.5
1229.2	576
1227.34	561.5
1225.47	604
1223.6	576.5
1221.74	550.5
1219.87	547
1218	514
1216.13	521
1214.26	505
1212.39	506
1210.53	524
1208.65	508
1206.78	524
1204.91	515
1203.04	491
1201.17	538
1199.3	512
1197.42	526.5
1195.55	502
1193.68	517.5
1191.8	471
1189.93	490
1188.05	501
1186.17	503
1184.3	535.5
1182.42	506.5
1180.54	505
1178.67	499
1176.79	495
1174.91	524
1173.03	520
1171.15	514
1169.27	503
1167.39	501
1165.51	523
1163.63	503
1161.75	513
1159.86	539
1157.98	517
1156.1	508.5
1154.21	534
1152.33	499
1150.44	520.5
1148.56	518
1146.67	527
1144.79	517
1142.9	522
1141.01	556
1139.12	568.5
1137.24	552.5
1135.35	578.5
1133.46	625
1131.57	641
1129.68	695.5
1127.79	683
1125.9	656
1124.01	704
1122.12	662
1120.22	640
1118.33	652
1116.44	636
1114.54	659
1112.65	642
1110.75	633.5
1108.86	628
1106.96	616
1105.07	671
1103.17	676
1101.27	715.5
1099.38	723
1097.48	718
1095.58	759
1093.68	766
1091.78	792
1089.88	844.5
1087.98	833.5
1086.08	859.5
1084.18	899
1082.28	864
1080.38	847
1078.47	907
1076.57	852
1074.67	834
1072.76	847.5
1070.86	821
1068.95	841
1067.05	877.5
1065.14	878
1063.24	861
1061.33	840.5
1059.42	823.5
1057.51	756
1055.6	719.5
1053.7	690.5
1051.79	691
1049.88	674
1047.97	671.5
1046.06	671
1044.14	662.5
1042.23	597.5
1040.32	673
1038.41	633.5
1036.5	648
1034.58	643.5
1032.67	631
1030.75	650.5
1028.84	646
1026.92	633
1025.01	647
1023.09	630
1021.17	649.5
1019.26	662
1017.34	651.5
1015.42	662.5
1013.5	646
1011.58	628
1009.66	693
1007.74	707.5
1005.82	638
1003.9	648.5
1001.98	676.5
1000.06	641
998.134	634.5
996.212	666
994.288	699.5
992.364	730.5
990.44	787.5
988.515	782.5
986.589	809
984.663	788
982.737	840.5
980.81	848
978.883	875.5
976.955	881
975.027	869
973.098	903
971.169	953
969.239	928.5
967.308	902.5
965.378	940.5
963.447	878
961.516	948.5
959.583	950
957.65	949
955.718	949
953.784	961
951.85	970
949.916	952
947.981	968.5
946.045	992
944.109	1059
942.173	1067
940.236	1017
938.298	1031
936.36	1037.5
934.422	971.5
932.484	980.5
930.544	882
928.604	852
926.664	787
924.724	779.5
922.782	776.5
920.84	740.5
918.898	692
916.955	749.5
915.012	737
913.068	714.5
911.124	716.5
909.18	738.5
907.235	713
905.289	720
903.343	728.5
901.397	780
899.45	750
897.502	788
895.554	789.5
893.605	780
891.657	847
889.707	849
887.758	829
885.807	829
883.856	815.5
881.905	788
879.953	816
878.001	835.5
876.048	813
874.094	852
872.14	801.5
870.186	816.5
868.232	853
866.276	824
864.321	832.5
862.365	795.5
860.408	781
858.451	787
856.493	791
854.535	775.5
852.576	771
850.617	798
848.658	806.5
846.698	790.5
844.737	805
842.776	770
840.814	716.5
838.852	734
836.89	757
834.927	710
832.963	710.5
830.999	700.5
829.035	685
827.07	674
825.105	662
823.139	683
821.172	639
819.206	634
817.238	647.5
815.27	616.5
813.301	631.5
811.333	623.5
809.363	587.5
807.394	585
805.424	563
803.453	553
801.482	549
799.509	531
797.538	532
795.565	519.5
793.592	509
791.618	506.5
789.643	534.5
787.669	513
785.693	504
783.718	511.5
781.742	495
779.765	521
777.788	515
775.811	499
773.832	517.5
771.853	494.5
769.875	504
767.895	512
765.915	510
763.934	486.5
761.953	482.5
759.972	500
757.99	490
756.007	454.5
754.024	499
752.041	490
750.056	453.5
748.072	508.5
746.087	483.5
744.102	493.5
742.116	488
740.13	512
738.143	489
736.155	487
734.167	473
732.179	535
730.19	491.5
728.2	513.5
726.21	473.5
724.22	519
722.229	475.5
720.237	545.5
718.246	512
716.253	467.5
714.26	483.5
712.267	483
710.273	485.5
708.279	468
706.284	473
704.289	474
702.293	462.5
700.296	471
698.3	468
696.303	450.5
694.305	488.5
692.307	490.5
690.307	463.5
688.308	466
686.309	497.5
684.308	476
682.308	497.5
680.306	529
678.304	480
676.302	495
674.3	486
672.296	494
670.293	492
668.289	494
666.284	533
664.278	509
662.273	488
660.266	496
658.26	536.5
656.252	504
654.244	476
652.237	476
650.227	526.5
648.218	508
646.209	480
644.198	519.5
642.188	495
640.177	540
638.165	492
636.153	531.5
634.14	531
632.128	557.5
630.113	541
628.099	548
626.085	541
624.07	535
622.054	575
620.038	561.5
618.021	557.5
616.004	554
613.986	580
611.968	550
609.949	559.5
607.93	578.5
605.911	573.5
603.891	562
601.87	566
599.848	555
597.827	551.5
595.805	557.5
593.782	514
591.759	550.5
589.735	531.5
587.711	535
585.687	542.5
583.661	534
581.636	524
579.609	538.5
577.583	522
575.555	526
573.527	542
571.5	553
569.471	547
567.441	549.5
565.412	581.5
563.382	533
561.351	603.5
559.32	560.5
557.289	567.5
555.257	636.5
553.223	638.5
551.19	672.5
549.157	660
547.122	714
545.088	759
543.053	807
541.017	898
538.981	940.5
536.943	1108.5
534.907	1350
532.869	1793
530.831	2421
528.792	3688.5
526.752	5837
524.713	8989
522.673	11603.5
520.632	12011.5
518.591	10030
516.549	7308
514.507	4960
512.464	3190
510.42	2101
508.377	1534
506.332	1206
504.288	1072.5
502.242	929
500.196	860.5
498.15	834
496.104	764
494.056	748.5
492.008	754.5
489.96	698
487.911	737.5
485.862	718.5
483.812	682.5
481.761	654
479.71	692
477.659	639
475.607	689.5
473.555	641
471.502	657.5
469.448	634.5
467.395	632
465.34	653
463.285	610
461.23	626
459.174	615.5
457.118	621.5
455.061	641.5
453.003	652.5
450.945	646.5
448.887	665
446.828	668.5
444.768	684
442.708	689
440.647	704
438.587	706.5
436.525	724.5
434.463	733.5
432.4	729.5
430.337	774.5
428.274	733
426.21	740.5
424.145	739
422.079	727
420.014	706.5
417.948	765
415.882	704
413.814	752.5
411.746	728.5
409.679	746.5
407.609	793
405.54	760
403.47	747.5
401.401	759
399.329	741.5
397.258	746
395.187	750
393.114	777
391.041	763.5
388.968	771.5
386.895	775
384.82	781
382.745	762.5
380.67	785
378.594	811.5
376.517	776
374.44	768
372.363	804.5
370.286	775
368.207	839
366.128	777
364.049	808
361.969	829.5
359.888	801.5
357.807	841
355.725	830
353.643	840.5
351.561	858.5
349.477	818.5
347.394	854
345.31	844.5
343.226	868
341.141	856.5
339.055	879.5
336.968	843
334.882	900
332.795	907
330.707	932.5
328.618	965
326.53	972
324.44	983
322.351	1022
320.26	1041.5
318.17	1043.5
316.078	1131.5
313.987	1142.5
311.895	1177.5
309.802	1198.5
307.708	1300
305.614	1273.5
303.52	1297.5
301.425	1312.5
299.329	1275
297.233	1195.5
295.137	1180.5
293.039	1177
290.942	1125
288.844	1118.5
286.745	1049
284.647	1079.5
282.546	1048
280.446	1070.5
278.346	1071.5
276.245	1048
274.143	1054.5
272.041	1080.5
269.939	1065.5
267.835	1074
265.731	1042
263.627	1047
261.522	1093.5
259.417	1077
257.311	1101
255.204	1099.5
253.098	1063.5
250.99	1104
248.882	1091
246.774	1158
244.664	1135
242.555	1150
240.445	1150
238.334	1175.5
236.223	1179.5
234.112	1172.5
232	1184
229.888	1141
227.775	1172
225.661	1205
223.546	1194.5
221.431	1207.5
219.316	1157
217.201	1222.5
215.084	1202.5
212.967	1170
210.85	1174
208.732	1203
206.614	1243.5
204.495	1207
202.375	1157.5
200.256	1236.5
198.135	1205.5
196.014	1213
193.893	1182
191.771	1181
189.648	1186
187.525	1219.5
185.401	1179.5
183.277	1235.5
181.152	1202.5
179.027	1189
176.901	1242
174.775	1219.5
172.648	1267
170.521	1231
168.393	1270
166.265	1300.5
164.136	1265
162.007	1344.5
159.876	1329.5
157.746	1343
155.615	1359
153.483	1392
151.351	1392.5
149.219	1429.5
147.086	1456.5
144.952	1499.5
142.818	1550
140.684	1599.5
138.548	1631.5
136.413	1628
134.276	1718
132.139	1772.5
130.002	1824
127.864	1838
125.725	1904.5
123.587	1966.5
121.447	1986
119.307	2070
117.166	2146.5
115.026	2185
112.885	2232
110.743	2381.5
108.6	2366
106.456	2492.5
104.313	2461.5
102.169	2406
100.023	2385.5
97.8789	2249
95.7328	2105
93.5869	1824
91.4392	1557
89.2919	1270
87.1447	1054
84.9959	811
