3528.51	81
3527.23	86.5
3525.95	98
3524.67	87.5
3523.39	86
3522.1	83
3520.82	85
3519.54	88
3518.26	95.5
3516.97	94.5
3515.69	98
3514.4	101.5
3513.12	93.5
3511.84	93.5
3510.55	104
3509.26	95.5
3507.98	102.5
3506.69	91.5
3505.41	105
3504.12	98.5
3502.83	106
3501.54	101.5
3500.26	109
3498.97	102.5
3497.68	118.5
3496.39	112
3495.1	118.5
3493.81	114.5
3492.52	110.5
3491.23	115
3489.94	114
3488.65	116
3487.36	121.5
3486.07	121.5
3484.78	120
3483.49	123.5
3482.19	130.5
3480.9	129
3479.61	130.5
3478.31	129
3477.02	130
3475.73	128.5
3474.43	133.5
3473.14	137.5
3471.84	137.5
3470.54	135.5
3469.25	141
3467.95	145
3466.66	136.5
3465.36	130
3464.06	134
3462.76	141
3461.46	137.5
3460.17	137.5
3458.87	145.5
3457.57	138.5
3456.27	148.5
3454.97	144
3453.67	153.5
3452.37	153
3451.07	160.5
3449.77	149
3448.47	158
3447.16	156
3445.86	162.5
3444.56	160
3443.26	165
3441.95	160.5
3440.65	180.5
3439.35	180.5
3438.04	171.5
3436.74	173
3435.43	179.5
3434.13	183
3432.82	186.5
3431.52	187.5
3430.21	201
3428.9	191.5
3427.6	195
3426.29	209.5
3424.98	207
3423.67	212
3422.36	204
3421.06	213
3419.75	218.5
3418.44	211.5
3417.13	222.5
3415.82	217.5
3414.51	225.5
3413.2	231
3411.88	229.5
3410.57	238.5
3409.26	228.5
3407.95	237
3406.64	245.5
3405.32	241
3404.01	239.5
3402.7	239
3401.38	226.5
3400.07	240
3398.75	242
3397.44	257
3396.12	248
3394.81	255
3393.49	264.5
3392.18	256.5
3390.86	261
3389.54	258.5
3388.23	260
3386.91	260
3385.59	254
3384.27	275
3382.95	272.5
3381.63	276.5
3380.31	283.5
3378.99	288
3377.67	289
3376.35	291
3375.03	290
3373.71	297.5
3372.39	279.5
3371.07	290
3369.75	291.5
3368.42	294
3367.1	299.5
3365.78	304.5
3364.45	306.5
3363.13	300.5
3361.81	306.5
3360.48	307
3359.16	314
3357.83	322
3356.51	300
3355.18	313.5
3353.85	316.5
3352.53	323.5
3351.2	315
3349.87	314.5
3348.54	329
3347.22	334
3345.89	329
3344.56	326
3343.23	325
3341.9	325.5
3340.57	326
3339.24	331
3337.91	331.5
3336.58	330
3335.25	343
3333.92	333
3332.58	335
3331.25	334
3329.92	340
3328.59	345
3327.25	341
3325.92	339
3324.58	349.5
3323.25	351.5
3321.92	341.5
3320.58	350.5
3319.25	345.5
3317.91	361.5
3316.57	360.5
3315.24	360.5
3313.9	356.5
3312.56	357
3311.23	361.5
3309.89	366
3308.55	365
3307.21	368.5
3305.87	367.5
3304.53	381
3303.19	373
3301.85	385
3300.51	389.5
3299.17	376.5
3297.83	384
3296.49	390
3295.15	371.5
3293.81	371.5
3292.46	396.5
3291.12	381.5
3289.78	393.5
3288.43	379.5
3287.09	389
3285.75	388.5
3284.4	398.5
3283.06	391.5
3281.71	391.5
3280.37	394.5
3279.02	390.5
3277.67	398.5
3276.33	403
3274.98	404
3273.63	412
3272.28	421.5
3270.94	424.5
3269.59	426
3268.24	418.5
3266.89	431
3265.54	437
3264.19	442.5
3262.84	446.5
3261.49	449
3260.14	470.5
3258.79	462
3257.44	490
3256.08	500
3254.73	504
3253.38	500.5
3252.03	512
3250.67	537
3249.32	538
3247.96	575
3246.61	562.5
3245.26	577
3243.9	614
3242.54	622
3241.19	631.5
3239.83	650.5
3238.48	673
3237.12	687.5
3235.76	699.5
3234.41	719
3233.05	725.5
3231.69	743.5
3230.33	767
3228.97	780.5
3227.61	777
3226.25	812
3224.89	827.5
3223.53	834
3222.17	833.5
3220.81	855.5
3219.45	856
3218.09	885.5
3216.72	890.5
3215.36	894
3214	910.5
3212.63	893
3211.27	898
3209.91	918
3208.54	921
3207.18	916.5
3205.81	921
3204.45	933.5
3203.08	944
3201.71	946.5
3200.35	955
3198.98	945.5
3197.61	976.5
3196.25	981.5
3194.88	988
3193.51	971.5
3192.14	983.5
3190.77	980
3189.4	989
3188.03	990.5
3186.66	992
3185.29	1007
3183.92	1012.5
3182.55	1023.5
3181.18	1014.5
3179.81	1026.5
3178.44	1046.5
3177.06	1051.5
3175.69	1052
3174.32	1054
3172.94	1083
3171.57	1056.5
3170.2	1071
3168.82	1068.5
3167.45	1095.5
3166.07	1101.5
3164.69	1109
3163.32	1117.5
3161.94	1121
3160.56	1139.5
3159.19	1144.5
3157.81	1160
3156.43	1162
3155.05	1163.5
3153.67	1146.5
3152.3	1195
3150.92	1199
3149.54	1214.5
3148.16	1218.5
3146.78	1205.5
3145.4	1232.5
3144.01	1235.5
3142.63	1241
3141.25	1245.5
3139.87	1265
3138.49	1254.5
3137.1	1273
3135.72	1271
3134.34	1298
3132.95	1301
3131.57	1313.5
3130.18	1332
3128.8	1339.5
3127.41	1330
3126.03	1346
3124.64	1325
3123.25	1348
3121.87	1362.5
3120.48	1364
3119.09	1369
3117.7	1384.5
3116.32	1386.5
3114.93	1412.5
3113.54	1426.5
3112.15	1408
3110.76	1404
3109.37	1421
3107.98	1435
3106.59	1429.5
3105.2	1435
3103.8	1451.5
3102.41	1444.5
3101.02	1441
3099.63	1470
3098.23	1474
3096.84	1468
3095.45	1480.5
3094.05	1477
3092.66	1485
3091.26	1491.5
3089.87	1510
3088.47	1495.5
3087.08	1543
3085.68	1506
3084.28	1534.5
3082.89	1535.5
3081.49	1524
3080.09	1532.5
3078.69	1522.5
3077.3	1548.5
3075.9	1515.5
3074.5	1545.5
3073.1	1538.5
3071.7	1539
3070.3	1544
3068.9	1549.5
3067.5	1540.5
3066.09	1574.5
3064.69	1568
3063.29	1571
3061.89	1595
3060.48	1573.5
3059.08	1584
3057.68	1600.5
3056.27	1599.5
3054.87	1586
3053.46	1596
3052.06	1599.5
3050.65	1624.5
3049.25	1636.5
3047.84	1620
3046.44	1641.5
3045.03	1648
3043.62	1632
3042.21	1647.5
3040.81	1653
3039.4	1666.5
3037.99	1666
3036.58	1684.5
3035.17	1675
3033.76	1674.5
3032.35	1679
3030.94	1687
3029.53	1691
3028.12	1664
3026.71	1689
3025.29	1714.5
3023.88	1706.5
3022.47	1697
3021.06	1681.5
3019.64	1708.5
3018.23	1733.5
3016.82	1714.5
3015.4	1701
3013.99	1698
3012.57	1716
3011.15	1711
3009.74	1695.5
3008.32	1708
3006.91	1737
3005.49	1728
3004.07	1739.5
3002.65	1749.5
3001.24	1749
2999.82	1757.5
2998.4	1753
2996.98	1778
2995.56	1780.5
2994.14	1793.5
2992.72	1794.5
2991.3	1827
2989.88	1827.5
2988.46	1839.5
2987.03	1847
2985.61	1834
2984.19	1852
2982.77	1873
2981.34	1864.5
2979.92	1894
2978.49	1911.5
2977.07	1926
2975.65	1902.5
2974.22	1931
2972.79	1936
2971.37	1934.5
2969.94	1956
2968.52	1950
2967.09	1974
2965.66	1968.5
2964.23	1986.5
2962.81	1988
2961.38	1956.5
2959.95	1973.5
2958.52	1993
2957.09	1977
2955.66	2006
2954.23	2031.5
2952.8	2012.5
2951.37	2016
2949.94	2024.5
2948.5	2011
2947.07	2007.5
2945.64	2015.5
2944.21	2050.5
2942.77	2023
2941.34	2037.5
2939.91	2029.5
2938.47	2054.5
2937.04	2076
2935.6	2057
2934.17	2092
2932.73	2095.5
2931.29	2112
2929.86	2129
2928.42	2108.5
2926.98	2106
2925.55	2127
2924.11	2132.5
2922.67	2130.5
2921.23	2144.5
2919.79	2144
2918.35	2146
2916.91	2148
2915.47	2144
2914.03	2147.5
2912.59	2154
2911.15	2158
2909.71	2158.5
2908.26	2173.5
2906.82	2190
2905.38	2193
2903.94	2175.5
2902.49	2184
2901.05	2210
2899.6	2229.5
2898.16	2210
2896.71	2194
2895.27	2223.5
2893.82	2204.5
2892.38	2210
2890.93	2225
2889.48	2235.5
2888.03	2231.5
2886.59	2231
2885.14	2226
2883.69	2220
2882.24	2239.5
2880.79	2245
2879.34	2251
2877.89	2255
2876.44	2239
2874.99	2250
2873.54	2243
2872.09	2259.5
2870.64	2256
2869.18	2248.5
2867.73	2247
2866.28	2247
2864.83	2255.5
2863.37	2244.5
2861.92	2263
2860.46	2252
2859.01	2267
2857.55	2268
2856.1	2267.5
2854.64	2268
2853.19	2280.5
2851.73	2270
2850.27	2269.5
2848.81	2252.5
2847.36	2266.5
2845.9	2279.5
2844.44	2256
2842.98	2241
2841.52	2273.5
2840.06	2244.5
2838.6	2221
2837.14	2217.5
2835.68	2229
2834.22	2215.5
2832.76	2226.5
2831.3	2195
2829.83	2195.5
2828.37	2196.5
2826.91	2206
2825.44	2191
2823.98	2193
2822.52	2191.5
2821.05	2192
2819.59	2181.5
2818.12	2160
2816.66	2146
2815.19	2164
2813.72	2154.5
2812.26	2146
2810.79	2154
2809.32	2138
2807.85	2132.5
2806.38	2156.5
2804.92	2146
2803.45	2133.5
2801.98	2130.5
2800.51	2137
2799.04	2113.5
2797.57	2127.5
2796.1	2114
2794.62	2127.5
2793.15	2127
2791.68	2115
2790.21	2116
2788.73	2112.5
2787.26	2133
2785.79	2111
2784.31	2104.5
2782.84	2123.5
2781.36	2117.5
2779.89	2107
2778.41	2116
2776.94	2101
2775.46	2121.5
2773.99	2124.5
2772.51	2148.5
2771.03	2146.5
2769.55	2138
2768.07	2141
2766.6	2131.5
2765.12	2145.5
2763.64	2140
2762.16	2146
2760.68	2152.5
2759.2	2153.5
2757.72	2138.5
2756.24	2145.5
2754.75	2123
2753.27	2124
2751.79	2126.5
2750.31	2122
2748.82	2128.5
2747.34	2121.5
2745.86	2126.5
2744.37	2108.5
2742.89	2131.5
2741.4	2143
2739.92	2124
2738.43	2134
2736.94	2125.5
2735.46	2146
2733.97	2137
2732.48	2144.5
2731	2131
2729.51	2097
2728.02	2138
2726.53	2115.5
2725.04	2127
2723.55	2107.5
2722.06	2131.5
2720.57	2097.5
2719.08	2139
2717.59	2117
2716.1	2129.5
2714.61	2122.5
2713.11	2142.5
2711.62	2121.5
2710.13	2123.5
2708.64	2118
2707.14	2112.5
2705.65	2131
2704.15	2104.5
2702.66	2127
2701.16	2106
2699.67	2110.5
2698.17	2077
2696.67	2080.5
2695.18	2090
2693.68	2084
2692.18	2072.5
2690.69	2079.5
2689.19	2073
2687.69	2050.5
2686.19	2072
2684.69	2070.5
2683.19	2066.5
2681.69	2037
2680.19	2053
2678.69	2056.5
2677.19	2050
2675.68	2051
2674.18	2032
2672.68	2041
2671.18	2018
2669.67	2030.5
2668.17	2025
2666.66	2025
2665.16	2047
2663.66	2016.5
2662.15	2024.5
2660.64	2006.5
2659.14	2030
2657.63	1987.5
2656.13	1990
2654.62	2006.5
2653.11	1991.5
2651.6	1980.5
2650.09	1997
2648.58	1983
2647.08	1989
2645.57	2001.5
2644.06	1985
2642.55	1978.5
2641.04	1979.5
2639.52	1971
2638.01	1955.5
2636.5	1988
2634.99	1943
2633.48	1954.5
2631.96	1956
2630.45	1920
2628.94	1959
2627.42	1947.5
2625.91	1925
2624.39	1922.5
2622.88	1917.5
2621.36	1934
2619.85	1943.5
2618.33	1941.5
2616.81	1932
2615.3	1911
2613.78	1910.5
2612.26	1908.5
2610.74	1904.5
2609.22	1919
2607.7	1911.5
2606.18	1876.5
2604.66	1896
2603.14	1881.5
2601.62	1857
2600.1	1871
2598.58	1861.5
2597.06	1855.5
2595.54	1857
2594.01	1845.5
2592.49	1848.5
2590.97	1840.5
2589.44	1839.5
2587.92	1826.5
2586.39	1838.5
2584.87	1826
2583.34	1821
2581.82	1826
2580.29	1805
2578.76	1804
2577.24	1799
2575.71	1807
2574.18	1807.5
2572.65	1812.5
2571.13	1814.5
2569.6	1825
2568.07	1807
2566.54	1804.5
2565.01	1824
2563.48	1798
2561.95	1803
2560.42	1795
2558.88	1786
2557.35	1778
2555.82	1776.5
2554.29	1761
2552.75	1762.5
2551.22	1733
2549.69	1770.5
2548.15	1758.5
2546.62	1740
2545.08	1744.5
2543.55	1738.5
2542.01	1728
2540.47	1736
2538.94	1734.5
2537.4	1731
2535.86	1726
2534.33	1716
2532.79	1708
2531.25	1733.5
2529.71	1700
2528.17	1696.5
2526.63	1689.5
2525.09	1690.5
2523.55	1682.5
2522.01	1679
2520.47	1661.5
2518.92	1668.5
2517.38	1674.5
2515.84	1669.5
2514.3	1657.5
2512.75	1661
2511.21	1649.5
2509.67	1640
2508.12	1648
2506.58	1621
2505.03	1616.5
2503.49	1587
2501.94	1595.5
2500.39	1610
2498.85	1620
2497.3	1585.5
2495.75	1591
2494.2	1587.5
2492.65	1604.5
2491.11	1592
2489.56	1584
2488.01	1583.5
2486.46	1570
2484.91	1553.5
2483.36	1560
2481.8	1570.5
2480.25	1548
2478.7	1545
2477.15	1556
2475.6	1540
2474.04	1535
2472.49	1515.5
2470.93	1513
2469.38	1513
2467.83	1491
2466.27	1478.5
2464.71	1480.5
2463.16	1466.5
2461.6	1460
2460.05	1471
2458.49	1456
2456.93	1450.5
2455.37	1456
2453.81	1461
2452.26	1453.5
2450.7	1424.5
2449.14	1436.5
2447.58	1433.5
2446.02	1408
2444.46	1406.5
2442.9	1401
2441.33	1421.5
2439.77	1420.5
2438.21	1407
2436.65	1409.5
2435.08	1389
2433.52	1384.5
2431.96	1389.5
2430.39	1373.5
2428.83	1376.5
2427.26	1344.5
2425.7	1367.5
2424.13	1366
2422.56	1378.5
2421	1361
2419.43	1348.5
2417.86	1341.5
2416.3	1366
2414.73	1357
2413.16	1362.5
2411.59	1343
2410.02	1340.5
2408.45	1331.5
2406.88	1331.5
2405.31	1334
2403.74	1342.5
2402.17	1336.5
2400.6	1333
2399.02	1332
2397.45	1318.5
2395.88	1323.5
2394.3	1314
2392.73	1311
2391.16	1307.5
2389.58	1306.5
2388.01	1307
2386.43	1295
2384.86	1313.5
2383.28	1302
2381.7	1293.5
2380.13	1298.5
2378.55	1301.5
2376.97	1289
2375.39	1294
2373.81	1286
2372.23	1293.5
2370.65	1265
2369.07	1281.5
2367.49	1290.5
2365.91	1259.5
2364.33	1257.5
2362.75	1269
2361.17	1243
2359.59	1262
2358.01	1239
2356.42	1226.5
2354.84	1247
2353.25	1241
2351.67	1242
2350.09	1244
2348.5	1238
2346.92	1235
2345.33	1238.5
2343.74	1241.5
2342.16	1252
2340.57	1218
2338.98	1228
2337.39	1218
2335.81	1221.5
2334.22	1223
2332.63	1233.5
2331.04	1222
2329.45	1214
2327.86	1219.5
2326.27	1218
2324.68	1205
2323.09	1210.5
2321.49	1189
2319.9	1212
2318.31	1183
2316.72	1190.5
2315.12	1181
2313.53	1176.5
2311.93	1162
2310.34	1159.5
2308.74	1164.5
2307.15	1154.5
2305.55	1148.5
2303.96	1138
2302.36	1146
2300.76	1120.5
2299.17	1122.5
2297.57	1132.5
2295.97	1130
2294.37	1121.5
2292.77	1114.5
2291.17	1112
2289.57	1101
2287.97	1113
2286.37	1115
2284.77	1102.5
2283.17	1098.5
2281.57	1104.5
2279.96	1097
2278.36	1126.5
2276.76	1082.5
2275.15	1101.5
2273.55	1086
2271.95	1100
2270.34	1072.5
2268.74	1069
2267.13	1054
2265.52	1057
2263.92	1051
2262.31	1049
2260.7	1055
2259.1	1060
2257.49	1031
2255.88	1040
2254.27	1033.5
2252.66	1045
2251.05	1048.5
2249.44	1025.5
2247.83	1031.5
2246.22	1029.5
2244.61	1053
2243	1022
2241.39	1026.5
2239.77	1025.5
2238.16	1021.5
2236.55	1015
2234.93	1019.5
2233.32	1005
2231.7	1005.5
2230.09	998.5
2228.47	991.5
2226.86	983.5
2225.24	992
2223.63	991.5
2222.01	976.5
2220.39	991
2218.77	971
2217.16	977.5
2215.54	958
2213.92	947
2212.3	946
2210.68	954.5
2209.06	944.5
2207.44	950
2205.82	939.5
2204.19	942
2202.57	942.5
2200.95	945
2199.33	930.5
2197.7	933.5
2196.08	917
2194.46	931.5
2192.83	928
2191.21	920.5
2189.58	919
2187.96	917
2186.33	910
2184.7	898
2183.08	931
2181.45	907.5
2179.82	896
2178.19	888.5
2176.57	895.5
2174.94	879
2173.31	889.5
2171.68	886.5
2170.05	888
2168.42	867
2166.79	870.5
2165.16	842.5
2163.52	861
2161.89	869
2160.26	875.5
2158.63	863.5
2156.99	853
2155.36	837.5
2153.73	848.5
2152.09	842.5
2150.46	847.5
2148.82	838.5
2147.18	829
2145.55	825.5
2143.91	822.5
2142.27	812.5
2140.64	820.5
2139	803.5
2137.36	792.5
2135.72	801.5
2134.08	810.5
2132.44	798
2130.8	795.5
2129.16	799
2127.52	788
2125.88	785.5
2124.24	774.5
2122.6	788
2120.95	792
2119.31	754
2117.67	764
2116.02	760
2114.38	754.5
2112.74	763
2111.09	756
2109.45	758
2107.8	745
2106.15	743.5
2104.51	735.5
2102.86	748
2101.21	742
2099.56	733.5
2097.92	731
2096.27	713.5
2094.62	730
2092.97	728.5
2091.32	722.5
2089.67	717.5
2088.02	729.5
2086.37	723.5
2084.72	715.5
2083.06	715
2081.41	716
2079.76	719.5
2078.1	708
2076.45	707.5
2074.8	702
2073.14	706
2071.49	689
2069.83	710
2068.18	703
2066.52	699
2064.86	697.5
2063.21	694.5
2061.55	706
2059.89	678.5
2058.23	687.5
2056.57	681
2054.92	695
2053.26	677.5
2051.6	683.5
2049.94	670.5
2048.27	685.5
2046.61	669.5
2044.95	666
2043.29	668
2041.63	662.5
2039.97	666
2038.3	647
2036.64	647.5
2034.97	642.5
2033.31	656
2031.64	644
2029.98	631
2028.31	630.5
2026.65	629
2024.98	629
2023.31	619.5
2021.65	626
2019.98	606.5
2018.31	618
2016.64	611.5
2014.97	610.5
2013.3	613
2011.63	596
2009.96	613
2008.29	606
2006.62	614
2004.95	596.5
2003.28	598.5
2001.6	594
1999.93	579.5
1998.26	592
1996.58	602
1994.91	592.5
1993.24	595.5
1991.56	592
1989.89	590.5
1988.21	574.5
1986.53	587.5
1984.86	574.5
1983.18	579
1981.5	564
1979.82	552
1978.15	564.5
1976.47	572.5
1974.79	565.5
1973.11	562
1971.43	562
1969.75	564.5
1968.07	557
1966.38	543
1964.7	557
1963.02	544
1961.34	533
1959.66	550.5
1957.97	534
1956.29	539.5
1954.6	541.5
1952.92	542.5
1951.23	533
1949.55	535
1947.86	535
1946.18	526
1944.49	519.5
1942.8	520.5
1941.11	515
1939.43	516.5
1937.74	513
1936.05	512
1934.36	512.5
1932.67	519
1930.98	508.5
1929.29	498.5
1927.6	500.5
1925.91	498
1924.21	489.5
1922.52	485.5
1920.83	491.5
1919.14	483
1917.44	496
1915.75	490
1914.05	474.5
1912.36	486.5
1910.66	482
1908.97	470.5
1907.27	472.5
1905.58	478
1903.88	467.5
1902.18	466.5
1900.48	472.5
1898.79	465.5
1897.09	449
1895.39	457.5
1893.69	467.5
1891.99	453.5
1890.29	455.5
1888.59	439
1886.89	442
1885.18	438
1883.48	439
1881.78	442
1880.08	434
1878.37	432
1876.67	443
1874.96	420.5
1873.26	420.5
1871.55	413
1869.85	426
1868.14	420.5
1866.44	415
1864.73	419
1863.02	413.5
1861.32	416.5
1859.61	415
1857.9	416
1856.19	419.5
1854.48	411.5
1852.77	410
1851.06	409
1849.35	411.5
1847.64	399
1845.93	397
1844.21	402
1842.5	402.5
1840.79	398
1839.08	388.5
1837.36	394.5
1835.65	400.5
1833.93	384.5
1832.22	397.5
1830.5	387.5
1828.79	379
1827.07	384
1825.36	379.5
1823.64	377.5
1821.92	374.5
1820.2	381.5
1818.48	373
1816.77	377
1815.05	372
1813.33	368
1811.61	373
1809.89	360.5
1808.16	347
1806.44	357.5
1804.72	374.5
1803	367.5
1801.28	355
1799.55	362.5
1797.83	358
1796.11	353
1794.38	347
1792.66	357.5
1790.93	353
1789.21	341.5
1787.48	336.5
1785.75	345
1784.03	331
1782.3	337.5
1780.57	342.5
1778.84	337
1777.11	333.5
1775.38	335
1773.66	334.5
1771.93	327.5
1770.19	335.5
1768.46	328
1766.73	332
1765	338
1763.27	351.5
1761.54	335
1759.8	342.5
1758.07	353
1756.34	354
1754.6	349
1752.87	349
1751.13	354.5
1749.4	349.5
1747.66	340
1745.92	338
1744.19	337
1742.45	340
1740.71	349
1738.97	335.5
1737.23	335.5
1735.49	326.5
1733.75	335
1732.01	317
1730.27	319
1728.53	316.5
1726.79	315
1725.05	313
1723.31	306
1721.57	303
1719.82	302.5
1718.08	308.5
1716.34	296
1714.59	302.5
1712.85	296.5
1711.1	303.5
1709.36	287
1707.61	292.5
1705.86	282
1704.12	294.5
1702.37	290
1700.62	291
1698.87	283.5
1697.12	290
1695.37	279.5
1693.62	284
1691.87	288.5
1690.12	276.5
1688.37	285.5
1686.62	279
1684.87	281.5
1683.12	268
1681.36	280
1679.61	275
1677.86	275.5
1676.1	285
1674.35	282.5
1672.59	283
1670.84	298.5
1669.08	288
1667.33	300.5
1665.57	307
1663.81	327.5
1662.06	316
1660.3	344
1658.54	349.5
1656.78	348
1655.02	347.5
1653.26	337.5
1651.5	323
1649.74	309.5
1647.98	302.5
1646.22	290.5
1644.46	284
1642.7	277
1640.93	274.5
1639.17	262
1637.41	264.5
1635.64	255.5
1633.88	244.5
1632.11	253.5
1630.35	250.5
1628.58	241
1626.81	244
1625.05	243.5
1623.28	245.5
1621.51	246
1619.75	241
1617.98	238.5
1616.21	232.5
1614.44	241.5
1612.67	228.5
1610.9	235
1609.13	239
1607.36	240
1605.58	232.5
1603.81	229.5
1602.04	235
1600.27	229.5
1598.49	226
1596.72	228
1594.95	232
1593.17	230
1591.4	230.5
1589.62	221.5
1587.84	240
1586.07	225
1584.29	214.5
1582.51	228.5
1580.74	221.5
1578.96	223
1577.18	222.5
1575.4	223
1573.62	228
1571.84	229.5
1570.06	207.5
1568.28	227
1566.5	205
1564.72	206
1562.93	213.5
1561.15	214.5
1559.37	218
1557.58	218
1555.8	218.5
1554.02	212.5
1552.23	217.5
1550.45	212
1548.66	209
1546.87	213.5
1545.09	203.5
1543.3	206
1541.51	206.5
1539.72	212
1537.94	203.5
1536.15	208.5
1534.36	201
1532.57	203
1530.78	197
1528.99	202
1527.2	201
1525.4	199.5
1523.61	195
1521.82	193
1520.03	199.5
1518.23	190.5
1516.44	203
1514.65	196.5
1512.85	204.5
1511.06	194
1509.26	197.5
1507.46	194
1505.67	208
1503.87	202.5
1502.07	202.5
1500.28	196
1498.48	196.5
1496.68	206.5
1494.88	194.5
1493.08	211
1491.28	209.5
1489.48	216.5
1487.68	216
1485.88	215.5
1484.08	226
1482.27	216
1480.47	236.5
1478.67	233
1476.86	243.5
1475.06	250
1473.25	270.5
1471.45	280.5
1469.64	294.5
1467.84	308
1466.03	318.5
1464.23	334
1462.42	350
1460.61	365.5
1458.8	380
1456.99	391
1455.18	395.5
1453.37	404
1451.56	416.5
1449.75	429
1447.94	443
1446.13	458
1444.32	452
1442.51	471
1440.7	474.5
1438.88	466.5
1437.07	443.5
1435.26	400
1433.44	372.5
1431.63	344.5
1429.81	315.5
1427.99	284
1426.18	260.5
1424.36	256.5
1422.54	240.5
1420.73	231
1418.91	225.5
1417.09	221
1415.27	217
1413.45	199.5
1411.63	211.5
1409.81	198
1407.99	197.5
1406.17	187.5
1404.35	187
1402.53	188
1400.7	170
1398.88	178
1397.06	161.5
1395.23	173
1393.41	173.5
1391.58	174.5
1389.76	181
1387.93	176.5
1386.11	170.5
1384.28	174
1382.45	172
1380.62	175
1378.8	178
1376.97	171
1375.14	185
1373.31	185
1371.48	181
1369.65	188
1367.82	182
1365.99	174.5
1364.16	172.5
1362.32	175.5
1360.49	175
1358.66	169
1356.82	173.5
1354.99	183
1353.16	170
1351.32	178
1349.48	174.5
1347.65	177
1345.81	178
1343.98	182.5
1342.14	173.5
1340.3	172.5
1338.46	173
1336.62	181
1334.79	184.5
1332.95	186
1331.11	185
1329.27	193
1327.42	201
1325.58	214.5
1323.74	232
1321.9	232
1320.06	237
1318.21	246.5
1316.37	262
1314.53	272
1312.68	279
1310.84	298
1308.99	319
1307.15	343
1305.3	350
1303.45	356.5
1301.61	360
1299.76	350.5
1297.91	339.5
1296.06	318
1294.21	289
1292.36	284
1290.51	267
1288.66	244.5
1286.81	247
1284.96	235.5
1283.11	229.5
1281.26	233
1279.4	227.5
1277.55	213.5
1275.7	228
1273.84	213
1271.99	217.5
1270.13	221
1268.28	225
1266.42	224.5
1264.56	215
1262.71	221
1260.85	226.5
1258.99	205.5
1257.13	197
1255.27	197.5
1253.41	192
1251.56	177
1249.7	188.5
1247.83	183
1245.97	174.5
1244.11	160
1242.25	173
1240.39	167
1238.52	166.5
1236.66	165.5
1234.8	154.5
1232.93	149
1231.07	152.5
1229.2	155
1227.34	154
1225.47	150
1223.6	144.5
1221.74	153.5
1219.87	143.5
1218	136.5
1216.13	135
1214.26	141
1212.39	137.5
1210.53	138
1208.65	131.5
1206.78	133
1204.91	142
1203.04	136
1201.17	130.5
1199.3	136.5
1197.42	137.5
1195.55	138
1193.68	124.5
1191.8	121.5
1189.93	142
1188.05	122.5
1186.17	126
1184.3	140
1182.42	138
1180.54	140
1178.67	133.5
1176.79	131
1174.91	140.5
1173.03	140
1171.15	130.5
1169.27	134.5
1167.39	137
1165.51	136
1163.63	134
1161.75	136
1159.86	128
1157.98	143
1156.1	146.5
1154.21	143
1152.33	133.5
1150.44	134
1148.56	137.5
1146.67	138.5
1144.79	138.5
1142.9	139
1141.01	143
1139.12	149.5
1137.24	157
1135.35	160.5
1133.46	167.5
1131.57	178
1129.68	182.5
1127.79	188
1125.9	184.5
1124.01	184
1122.12	190.5
1120.22	182
1118.33	177
1116.44	172.5
1114.54	173.5
1112.65	173
1110.75	164
1108.86	177
1106.96	170
1105.07	173.5
1103.17	182
1101.27	187
1099.38	199
1097.48	219
1095.58	229
1093.68	231
1091.78	229.5
1089.88	234
1087.98	244
1086.08	256.5
1084.18	249.5
1082.28	255
1080.38	253.5
1078.47	254
1076.57	238.5
1074.67	240
1072.76	241.5
1070.86	242.5
1068.95	248
1067.05	253.5
1065.14	265
1063.24	254
1061.33	233
1059.42	227.5
1057.51	205
1055.6	200
1053.7	187.5
1051.79	185
1049.88	184
1047.97	180.5
1046.06	185.5
1044.14	178
1042.23	175
1040.32	175.5
1038.41	180
1036.5	176
1034.58	169
1032.67	174.5
1030.75	176
1028.84	173.5
1026.92	177.5
1025.01	176.5
1023.09	172.5
1021.17	178
1019.26	176.5
1017.34	167
1015.42	174
1013.5	168
1011.58	165.5
1009.66	176.5
1007.74	167.5
1005.82	169.5
1003.9	169
1001.98	170
1000.06	164
998.134	168
996.212	180.5
994.288	172
992.364	182.5
990.44	183
988.515	189.5
986.589	200.5
984.663	190
982.737	205
980.81	214
978.883	211
976.955	219
975.027	226
973.098	217
971.169	224
969.239	225
967.308	221
965.378	214
963.447	223.5
961.516	223
959.583	233
957.65	225.5
955.718	217
953.784	228
951.85	230
949.916	232
947.981	243
946.045	247
944.109	265
942.173	244
940.236	263
938.298	253.5
936.36	244.5
934.422	233.5
932.484	232.5
930.544	215.5
928.604	208.5
926.664	196
924.724	198
922.782	193
920.84	196
918.898	199.5
916.955	203.5
915.012	201.5
913.068	187
911.124	195.5
909.18	193
907.235	189
905.289	190.5
903.343	188.5
901.397	185
899.45	201
897.502	194.5
895.554	211.5
893.605	220.5
891.657	223.5
889.707	228
887.758	211.5
885.807	223
883.856	218
881.905	212
879.953	217
878.001	219
876.048	219
874.094	235.5
872.14	235
870.186	231.5
868.232	223
866.276	221
864.321	223
862.365	222.5
860.408	216
858.451	210
856.493	221
854.535	217
852.576	212
850.617	227.5
848.658	213
846.698	218
844.737	205.5
842.776	205
840.814	201
838.852	196
836.89	191
834.927	190
832.963	185
830.999	182
829.035	185
827.07	174.5
825.105	170
823.139	167
821.172	169.5
819.206	153
817.238	155.5
815.27	161.5
813.301	141
811.333	147.5
809.363	138
807.394	144.5
805.424	136.5
803.453	135.5
801.482	122.5
799.509	131
797.538	117.5
795.565	114.5
793.592	118
791.618	111
789.643	124
787.669	121
785.693	122
783.718	123.5
781.742	119.5
779.765	108
777.788	121.5
775.811	122.5
773.832	122
771.853	109
769.875	110
767.895	120.5
765.915	103
763.934	105
761.953	121
759.972	117
757.99	112
756.007	115
754.024	102
752.041	114
750.056	102
748.072	105.5
746.087	106.5
744.102	117
742.116	108
740.13	113
738.143	110
736.155	117
734.167	123.5
732.179	118
730.19	118
728.2	115
726.21	115
724.22	118.5
722.229	107
720.237	108
718.246	114.5
716.253	107
714.26	111
712.267	103
710.273	107.5
708.279	107
706.284	105.5
704.289	97.5
702.293	99
700.296	92
698.3	101
696.303	104
694.305	94
692.307	100
690.307	98.5
688.308	108.5
686.309	110.5
684.308	102
682.308	95
680.306	108.5
678.304	96
676.302	109
674.3	92
672.296	101
670.293	109
668.289	115.5
666.284	113
664.278	110
662.273	117
660.266	109.5
658.26	100.5
656.252	104.5
654.244	107
652.237	107
650.227	114
648.218	111
646.209	113.5
644.198	105
642.188	114
640.177	117.5
638.165	107
636.153	121
634.14	110
632.128	114.5
630.113	116
628.099	116
626.085	117.5
624.07	117
622.054	118
620.038	127
618.021	133
616.004	127
613.986	129.5
611.968	129
609.949	131
607.93	118.5
605.911	126
603.891	131.5
601.87	122.5
599.848	130.5
597.827	127
595.805	120.5
593.782	120
591.759	124
589.735	113.5
587.711	110.5
585.687	111
583.661	113.5
581.636	120.5
579.609	118
577.583	120
575.555	117
573.527	114
571.5	109
569.471	111.5
567.441	121
565.412	122
563.382	116
561.351	119
559.32	128.5
557.289	124
555.257	129
553.223	135.5
551.19	142.5
549.157	149
547.122	160.5
545.088	153.5
543.053	165.5
541.017	181
538.981	209.5
536.943	248.5
534.907	312
532.869	398
530.831	576
528.792	870.5
526.752	1348
524.713	2027
522.673	2564.5
520.632	2589.5
518.591	2102
516.549	1497.5
514.507	1009
512.464	643
510.42	436
508.377	310.5
506.332	262.5
504.288	226
502.242	205.5
500.196	193
498.15	185
496.104	178
494.056	166.5
492.008	165.5
489.96	157.5
487.911	160.5
485.862	164.5
483.812	149
481.761	153
479.71	145.5
477.659	158
475.607	154
473.555	138.5
471.502	146
469.448	130
467.395	141
465.34	140.5
463.285	139.5
461.23	145.5
459.174	148
457.118	150
455.061	142
453.003	141.5
450.945	145.5
448.887	145.5
446.828	147.5
444.768	154.5
442.708	151.5
440.647	146
438.587	153.5
436.525	165
434.463	159
432.4	152.5
430.337	170
428.274	159
426.21	152
424.145	161
422.079	155.5
420.014	154.5
417.948	158.5
415.882	178
413.814	164
411.746	160
409.679	174.5
407.609	174
405.54	177
403.47	182.5
401.401	174.5
399.329	166.5
397.258	163
395.187	167.5
393.114	174
391.041	171.5
388.968	171
386.895	171
384.82	183.5
382.745	170.5
380.67	163
378.594	164.5
376.517	173
374.44	169.5
372.363	169
370.286	186.5
368.207	179
366.128	180
364.049	185
361.969	188.5
359.888	193
357.807	177.5
355.725	191.5
353.643	196
351.561	189
349.477	186
347.394	187.5
345.31	196.5
343.226	198
341.141	194.5
339.055	190
336.968	196.5
334.882	198.5
332.795	202.5
330.707	206
328.618	206
326.53	217
324.44	211
322.351	219
320.26	227
318.17	237
316.078	250
313.987	244
311.895	275
309.802	278
307.708	281
305.614	295.5
303.52	301.5
301.425	297
299.329	284
297.233	278.5
295.137	279.5
293.039	268
290.942	252.5
288.844	253
286.745	254
284.647	258
282.546	243.5
280.446	252.5
278.346	237
276.245	240
274.143	252
272.041	250
269.939	261
267.835	252
265.731	261
263.627	258.5
261.522	246
259.417	259
257.311	266
255.204	267
253.098	265
250.99	275.5
248.882	284
246.774	281.5
244.664	281
242.555	283.5
240.445	287
238.334	294
236.223	284
234.112	311
232	302.5
229.888	294.5
227.775	312
225.661	301.5
223.546	304
221.431	296.5
219.316	305.5
217.201	312
215.084	314
212.967	296.5
210.85	308.5
208.732	307.5
206.614	306
204.495	317
202.375	307
200.256	312.5
198.135	307
196.014	306.5
193.893	313.5
191.771	303.5
189.648	301.5
187.525	311
185.401	295.5
183.277	298.5
181.152	305
179.027	303
176.901	320.5
174.775	320
172.648	318
170.521	326
168.393	324
166.265	339.5
164.136	325.5
162.007	346
159.876	343
157.746	354.5
155.615	352
153.483	362
151.351	364
149.219	390
147.086	382
144.952	408
142.818	415.5
140.684	420.5
138.548	428
136.413	455
134.276	451
132.139	466
130.002	498
127.864	509
125.725	535.5
123.587	543
121.447	558
119.307	595
117.166	613.5
115.026	631
112.885	636.5
110.743	666.5
108.6	681.5
106.456	715
104.313	716.5
102.169	709.5
100.023	685.5
97.8789	646
95.7328	577
93.5869	524
91.4392	447
89.2919	352
87.1447	268
84.9959	221
