3528.51	47.75
3527.23	52.5
3525.95	70.25
3524.67	38.5
3523.39	64
3522.1	55.75
3520.82	66.75
3519.54	41.25
3518.26	49.25
3516.97	55.5
3515.69	66.25
3514.4	60.75
3513.12	24.5
3511.84	53.25
3510.55	64
3509.26	55.25
3507.98	70
3506.69	83.25
3505.41	69
3504.12	44.25
3502.83	72.5
3501.54	68
3500.26	77.25
3498.97	57
3497.68	53.5
3496.39	33
3495.1	94
3493.81	57
3492.52	58.25
3491.23	47
3489.94	63.25
3488.65	66.5
3487.36	87.5
3486.07	61.75
3484.78	97.25
3483.49	74.5
3482.19	77.75
3480.9	106.25
3479.61	64
3478.31	64.5
3477.02	64.75
3475.73	85.5
3474.43	67.25
3473.14	94.5
3471.84	87
3470.54	71.5
3469.25	77.5
3467.95	80.5
3466.66	68.5
3465.36	55
3464.06	59.25
3462.76	90.5
3461.46	94
3460.17	79.5
3458.87	78
3457.57	95.25
3456.27	83.25
3454.97	65.25
3453.67	75.5
3452.37	94.75
3451.07	89.75
3449.77	91.5
3448.47	121.5
3447.16	101
3445.86	85.75
3444.56	113
3443.26	112.5
3441.95	97.5
3440.65	76.75
3439.35	105
3438.04	83.25
3436.74	123
3435.43	122.5
3434.13	118.75
3432.82	106.75
3431.52	113.25
3430.21	112
3428.9	104.25
3427.6	121.75
3426.29	125.75
3424.98	117
3423.67	111
3422.36	135.75
3421.06	119.5
3419.75	154
3418.44	154.75
3417.13	142
3415.82	104.5
3414.51	131.5
3413.2	132.75
3411.88	173.5
3410.57	115.25
3409.26	143.75
3407.95	131
3406.64	139.75
3405.32	144
3404.01	151.75
3402.7	145.75
3401.38	131.5
3400.07	108.75
3398.75	169
3397.44	158.5
3396.12	151.25
3394.81	153.25
3393.49	163
3392.18	139
3390.86	173.5
3389.54	166.5
3388.23	169.5
3386.91	163
3385.59	166.5
3384.27	183.25
3382.95	163.5
3381.63	177
3380.31	165.25
3378.99	176.5
3377.67	174
3376.35	168.25
3375.03	186.5
3373.71	197.25
3372.39	179
3371.07	175
3369.75	190
3368.42	183.5
3367.1	187
3365.78	190.5
3364.45	183
3363.13	196.75
3361.81	190
3360.48	167.5
3359.16	219
3357.83	187
3356.51	190
3355.18	207.25
3353.85	201
3352.53	214.75
3351.2	191.25
3349.87	194.5
3348.54	214.75
3347.22	224.75
3345.89	200.25
3344.56	205.25
3343.23	218.5
3341.9	207.25
3340.57	216.25
3339.24	241.25
3337.91	209.5
3336.58	190.75
3335.25	205
3333.92	233.75
3332.58	169.25
3331.25	205
3329.92	222.5
3328.59	200
3327.25	228
3325.92	196.75
3324.58	197
3323.25	223.25
3321.92	234.5
3320.58	209.25
3319.25	245.5
3317.91	183.25
3316.57	207.75
3315.24	238.25
3313.9	217.5
3312.56	245.25
3311.23	236.75
3309.89	225.25
3308.55	225.25
3307.21	234.25
3305.87	252.5
3304.53	236.75
3303.19	238.25
3301.85	237.75
3300.51	233
3299.17	225.5
3297.83	228
3296.49	236.75
3295.15	236.75
3293.81	215.5
3292.46	227.75
3291.12	272
3289.78	236.75
3288.43	242.75
3287.09	267.25
3285.75	266.5
3284.4	228.75
3283.06	267.5
3281.71	231.5
3280.37	269.25
3279.02	247.25
3277.67	251.25
3276.33	253.75
3274.98	248.25
3273.63	248.75
3272.28	276.5
3270.94	248
3269.59	251.75
3268.24	282
3266.89	254.5
3265.54	272
3264.19	262
3262.84	295.75
3261.49	302.75
3260.14	310.5
3258.79	290.75
3257.44	323.75
3256.08	289.5
3254.73	316.75
3253.38	330.5
3252.03	335.5
3250.67	354.75
3249.32	322.25
3247.96	336.25
3246.61	363.75
3245.26	334.5
3243.9	363.5
3242.54	396.75
3241.19	417.5
3239.83	413.75
3238.48	411.5
3237.12	406.5
3235.76	440
3234.41	447.25
3233.05	457
3231.69	457.5
3230.33	480.25
3228.97	445.75
3227.61	479
3226.25	497
3224.89	489.25
3223.53	488.25
3222.17	506.25
3220.81	528.5
3219.45	551.25
3218.09	540.5
3216.72	527
3215.36	531.25
3214	547
3212.63	533.25
3211.27	557.25
3209.91	560.25
3208.54	523.75
3207.18	567.25
3205.81	595
3204.45	579.5
3203.08	547
3201.71	592.25
3200.35	574.5
3198.98	555.25
3197.61	578
3196.25	582.75
3194.88	570.5
3193.51	575.75
3192.14	576.5
3190.77	603.25
3189.4	607.25
3188.03	612.5
3186.66	599.5
3185.29	605
3183.92	595
3182.55	620.75
3181.18	622.25
3179.81	611.25
3178.44	635
3177.06	616.25
3175.69	617.75
3174.32	653
3172.94	638
3171.57	628.75
3170.2	655.25
3168.82	649.5
3167.45	638.75
3166.07	641.5
3164.69	662
3163.32	660.25
3161.94	663.75
3160.56	662.75
3159.19	694.75
3157.81	717
3156.43	674
3155.05	721.75
3153.67	701.25
3152.3	680.5
3150.92	694.25
3149.54	713.5
3148.16	751.75
3146.78	724
3145.4	738.5
3144.01	733.75
3142.63	764.75
3141.25	751
3139.87	734.75
3138.49	798.5
3137.1	756
3135.72	770.5
3134.34	768.75
3132.95	785.5
3131.57	793
3130.18	784
3128.8	774.75
3127.41	821.5
3126.03	806
3124.64	820.75
3123.25	819.75
3121.87	816.5
3120.48	829
3119.09	848
3117.7	827.5
3116.32	836.25
3114.93	823
3113.54	825.75
3112.15	855.75
3110.76	847.25
3109.37	831.75
3107.98	844.25
3106.59	848
3105.2	842
3103.8	875.25
3102.41	892.5
3101.02	884.25
3099.63	873.5
3098.23	879
3096.84	894.25
3095.45	889.5
3094.05	863.25
3092.66	929.25
3091.26	898
3089.87	876
3088.47	897.5
3087.08	906.5
3085.68	903.25
3084.28	907
3082.89	912.75
3081.49	928
3080.09	916
3078.69	906.5
3077.3	933
3075.9	926.5
3074.5	942.25
3073.1	927.5
3071.7	943.5
3070.3	908.75
3068.9	964.5
3067.5	905.75
3066.09	957.75
3064.69	938.75
3063.29	965.25
3061.89	984.25
3060.48	919
3059.08	955.75
3057.68	938.75
3056.27	946.5
3054.87	964.5
3053.46	985.75
3052.06	1004.25
3050.65	960.75
3049.25	956.25
3047.84	984.25
3046.44	980.75
3045.03	998.5
3043.62	1006
3042.21	997.5
3040.81	967.25
3039.4	1018
3037.99	1004
3036.58	1015.75
3035.17	1023.5
3033.76	1024.25
3032.35	1028.5
3030.94	1004
3029.53	1021.75
3028.12	1041
3026.71	1019
3025.29	1028.5
3023.88	1035.25
3022.47	1045
3021.06	1042.25
3019.64	1025.75
3018.23	1086.5
3016.82	1043.5
3015.4	1050.75
3013.99	1073.75
3012.57	1076.5
3011.15	1066.5
3009.74	1089
3008.32	1079.5
3006.91	1084.5
3005.49	1099.25
3004.07	1057.5
3002.65	1093.75
3001.24	1123.25
2999.82	1124
2998.4	1071.5
2996.98	1113
2995.56	1120.75
2994.14	1126.25
2992.72	1166.75
2991.3	1114.5
2989.88	1149.25
2988.46	1142.5
2987.03	1106.5
2985.61	1158.75
2984.19	1176
2982.77	1185.25
2981.34	1186
2979.92	1221.25
2978.49	1192.75
2977.07	1239.75
2975.65	1192.5
2974.22	1250.75
2972.79	1258.75
2971.37	1229.75
2969.94	1268
2968.52	1292
2967.09	1289.75
2965.66	1258.75
2964.23	1281.5
2962.81	1299.75
2961.38	1345.5
2959.95	1327.5
2958.52	1347.5
2957.09	1357.75
2955.66	1331.5
2954.23	1344
2952.8	1387
2951.37	1319.75
2949.94	1386.25
2948.5	1381.75
2947.07	1385
2945.64	1386.25
2944.21	1400.75
2942.77	1418.5
2941.34	1466.25
2939.91	1466.25
2938.47	1487.75
2937.04	1482.25
2935.6	1514.5
2934.17	1532.25
2932.73	1512.5
2931.29	1548
2929.86	1540
2928.42	1555
2926.98	1576.75
2925.55	1565
2924.11	1572
2922.67	1603.5
2921.23	1561.75
2919.79	1614.75
2918.35	1590.75
2916.91	1589.75
2915.47	1629.25
2914.03	1638.5
2912.59	1632
2911.15	1671
2909.71	1660.75
2908.26	1658
2906.82	1626.25
2905.38	1656.75
2903.94	1689.75
2902.49	1695
2901.05	1669.75
2899.6	1714.5
2898.16	1686.75
2896.71	1713
2895.27	1740.25
2893.82	1733
2892.38	1706
2890.93	1763.25
2889.48	1753
2888.03	1722.25
2886.59	1742.25
2885.14	1753.5
2883.69	1728.5
2882.24	1727.75
2880.79	1772.75
2879.34	1728.25
2877.89	1729.75
2876.44	1725.5
2874.99	1765.25
2873.54	1747.5
2872.09	1724.25
2870.64	1725.25
2869.18	1749
2867.73	1731.75
2866.28	1754.25
2864.83	1751.75
2863.37	1721.25
2861.92	1753.5
2860.46	1731
2859.01	1783.5
2857.55	1737.25
2856.1	1762
2854.64	1747.5
2853.19	1774.25
2851.73	1730.25
2850.27	1754
2848.81	1747.75
2847.36	1719.25
2845.9	1702.5
2844.44	1692.75
2842.98	1686.5
2841.52	1604.75
2840.06	1607.25
2838.6	1575.5
2837.14	1552.25
2835.68	1535.5
2834.22	1514
2832.76	1506.25
2831.3	1450.75
2829.83	1418.75
2828.37	1420.75
2826.91	1411.25
2825.44	1411
2823.98	1348.25
2822.52	1423
2821.05	1433.5
2819.59	1346.75
2818.12	1355.5
2816.66	1358
2815.19	1367.5
2813.72	1343.5
2812.26	1337
2810.79	1322.75
2809.32	1370.75
2807.85	1319
2806.38	1289.5
2804.92	1303.75
2803.45	1329.25
2801.98	1289
2800.51	1308.75
2799.04	1306.5
2797.57	1307
2796.1	1281.5
2794.62	1310.75
2793.15	1307.5
2791.68	1277
2790.21	1284.25
2788.73	1295.5
2787.26	1319.75
2785.79	1267.5
2784.31	1281.5
2782.84	1294
2781.36	1305
2779.89	1294
2778.41	1283.25
2776.94	1301.25
2775.46	1300.5
2773.99	1285.25
2772.51	1272.5
2771.03	1308.25
2769.55	1320.5
2768.07	1309.5
2766.6	1302.25
2765.12	1291
2763.64	1288.75
2762.16	1311.75
2760.68	1301
2759.2	1314.5
2757.72	1268
2756.24	1289.5
2754.75	1259.25
2753.27	1290.75
2751.79	1272
2750.31	1284.75
2748.82	1297.5
2747.34	1283
2745.86	1266.25
2744.37	1263.25
2742.89	1300.5
2741.4	1280
2739.92	1291.75
2738.43	1271.75
2736.94	1289.75
2735.46	1280.5
2733.97	1280
2732.48	1289.5
2731	1328.25
2729.51	1310
2728.02	1280
2726.53	1307.25
2725.04	1326.25
2723.55	1285
2722.06	1304.25
2720.57	1289.25
2719.08	1291.25
2717.59	1312
2716.1	1279.75
2714.61	1291.5
2713.11	1302
2711.62	1276.75
2710.13	1286
2708.64	1273.25
2707.14	1232
2705.65	1283.75
2704.15	1316.75
2702.66	1266.75
2701.16	1265.75
2699.67	1227.5
2698.17	1253.25
2696.67	1246.5
2695.18	1236.5
2693.68	1259.5
2692.18	1251.75
2690.69	1277.5
2689.19	1237.5
2687.69	1278
2686.19	1258
2684.69	1249.75
2683.19	1245
2681.69	1251
2680.19	1242
2678.69	1210.5
2677.19	1254
2675.68	1244.75
2674.18	1223.75
2672.68	1216.25
2671.18	1223.5
2669.67	1207.25
2668.17	1224
2666.66	1213.5
2665.16	1231.5
2663.66	1242.25
2662.15	1190.75
2660.64	1204.25
2659.14	1234.25
2657.63	1242.5
2656.13	1178.5
2654.62	1218.75
2653.11	1188.5
2651.6	1230.75
2650.09	1186.5
2648.58	1180
2647.08	1204.75
2645.57	1170
2644.06	1179.5
2642.55	1176.75
2641.04	1170.25
2639.52	1192.25
2638.01	1169.25
2636.5	1173
2634.99	1161.75
2633.48	1179
2631.96	1163.75
2630.45	1169.25
2628.94	1167.25
2627.42	1155.75
2625.91	1159
2624.39	1147.75
2622.88	1163.25
2621.36	1165.25
2619.85	1154.5
2618.33	1167.25
2616.81	1121.75
2615.3	1150
2613.78	1152
2612.26	1152.5
2610.74	1144.5
2609.22	1121.5
2607.7	1147.75
2606.18	1134.25
2604.66	1120.5
2603.14	1119.25
2601.62	1116
2600.1	1121.25
2598.58	1105.75
2597.06	1116.5
2595.54	1103.25
2594.01	1083
2592.49	1098
2590.97	1110
2589.44	1109.5
2587.92	1095.5
2586.39	1095.75
2584.87	1077.5
2583.34	1097.75
2581.82	1100
2580.29	1079.75
2578.76	1100.75
2577.24	1111
2575.71	1097
2574.18	1098.75
2572.65	1082.75
2571.13	1092
2569.6	1098
2568.07	1076.75
2566.54	1084.75
2565.01	1060.5
2563.48	1079
2561.95	1065
2560.42	1078.25
2558.88	1059.25
2557.35	1059.75
2555.82	1085
2554.29	1047.75
2552.75	1045.75
2551.22	1035.5
2549.69	1019.25
2548.15	1041.25
2546.62	1041.75
2545.08	1044.5
2543.55	1032
2542.01	1042.75
2540.47	1005.5
2538.94	1044.25
2537.4	1029
2535.86	1037.25
2534.33	985
2532.79	1037.25
2531.25	1015.5
2529.71	980.25
2528.17	996.25
2526.63	1030.75
2525.09	996.75
2523.55	1000.75
2522.01	988.75
2520.47	1027
2518.92	1009
2517.38	990
2515.84	994.5
2514.3	977.5
2512.75	946.25
2511.21	965.25
2509.67	974.25
2508.12	985
2506.58	966
2505.03	971.25
2503.49	935.25
2501.94	941.75
2500.39	987.25
2498.85	950.75
2497.3	947.25
2495.75	948.75
2494.2	958
2492.65	959.75
2491.11	958
2489.56	928.5
2488.01	926.5
2486.46	892
2484.91	958
2483.36	928.25
2481.8	893
2480.25	895
2478.7	910.25
2477.15	897.25
2475.6	894.25
2474.04	928.5
2472.49	900.25
2470.93	889.5
2469.38	909.25
2467.83	891.25
2466.27	916
2464.71	877
2463.16	891
2461.6	863
2460.05	877
2458.49	903
2456.93	895.75
2455.37	866
2453.81	867.75
2452.26	833.75
2450.7	864.75
2449.14	857.25
2447.58	831.25
2446.02	879.25
2444.46	851
2442.9	819.25
2441.33	840.75
2439.77	857.5
2438.21	828
2436.65	831.75
2435.08	835.5
2433.52	820.5
2431.96	809.5
2430.39	833.75
2428.83	828.25
2427.26	819
2425.7	834.25
2424.13	839
2422.56	808.75
2421	848.25
2419.43	831.5
2417.86	817
2416.3	811.25
2414.73	815.5
2413.16	788.5
2411.59	799
2410.02	802.25
2408.45	817
2406.88	828.5
2405.31	801.5
2403.74	797
2402.17	821
2400.6	779.5
2399.02	794.75
2397.45	797.75
2395.88	782.25
2394.3	789.75
2392.73	784.5
2391.16	800
2389.58	787.25
2388.01	782.25
2386.43	793.5
2384.86	802.75
2383.28	758.25
2381.7	769.5
2380.13	781.75
2378.55	809
2376.97	762.75
2375.39	778.25
2373.81	795.5
2372.23	756.5
2370.65	748.25
2369.07	763.75
2367.49	757.5
2365.91	778
2364.33	761.25
2362.75	766.25
2361.17	757.25
2359.59	766.25
2358.01	759.75
2356.42	731.25
2354.84	750.25
2353.25	719.25
2351.67	733.5
2350.09	726
2348.5	734
2346.92	738.5
2345.33	735
2343.74	739.75
2342.16	725.75
2340.57	771
2338.98	748.5
2337.39	753.75
2335.81	720
2334.22	722.25
2332.63	753
2331.04	727.75
2329.45	738.5
2327.86	737.75
2326.27	727.25
2324.68	720
2323.09	711.5
2321.49	711
2319.9	712.25
2318.31	706
2316.72	718.75
2315.12	698
2313.53	687.75
2311.93	699
2310.34	664.75
2308.74	687.75
2307.15	669
2305.55	688
2303.96	663.75
2302.36	704.25
2300.76	683
2299.17	667.25
2297.57	674.25
2295.97	714.25
2294.37	680.75
2292.77	677.25
2291.17	685.5
2289.57	678.5
2287.97	680.25
2286.37	654.75
2284.77	660.25
2283.17	665
2281.57	692.75
2279.96	645.75
2278.36	669.75
2276.76	654.25
2275.15	660
2273.55	662.5
2271.95	656.25
2270.34	675.75
2268.74	623.5
2267.13	636.25
2265.52	651
2263.92	646.5
2262.31	626.25
2260.7	623.25
2259.1	609.5
2257.49	626
2255.88	621.5
2254.27	628.75
2252.66	645.5
2251.05	636.75
2249.44	604.25
2247.83	621.25
2246.22	641
2244.61	651.5
2243	606.75
2241.39	626
2239.77	609.25
2238.16	613.25
2236.55	602.75
2234.93	619.5
2233.32	627
2231.7	618.5
2230.09	622
2228.47	595.5
2226.86	599
2225.24	600.25
2223.63	571
2222.01	593.75
2220.39	602.5
2218.77	568.5
2217.16	611
2215.54	582.5
2213.92	555.25
2212.3	580.25
2210.68	582.75
2209.06	609.75
2207.44	579.5
2205.82	580.5
2204.19	575.25
2202.57	592.75
2200.95	579.5
2199.33	547.75
2197.7	580.75
2196.08	557
2194.46	571
2192.83	573
2191.21	569
2189.58	571.75
2187.96	575.5
2186.33	553.25
2184.7	561.75
2183.08	556.25
2181.45	553.25
2179.82	559
2178.19	558.25
2176.57	537.75
2174.94	538.25
2173.31	560.75
2171.68	559.75
2170.05	520.25
2168.42	514.25
2166.79	544
2165.16	535
2163.52	532.75
2161.89	511.75
2160.26	548.5
2158.63	505.5
2156.99	506.75
2155.36	509
2153.73	529.5
2152.09	526.75
2150.46	521.5
2148.82	504.5
2147.18	519.75
2145.55	499.5
2143.91	506.25
2142.27	523.5
2140.64	511
2139	512.25
2137.36	519.75
2135.72	529.5
2134.08	513
2132.44	488.25
2130.8	501.75
2129.16	468.75
2127.52	455.25
2125.88	478.5
2124.24	486
2122.6	477.25
2120.95	489.5
2119.31	484
2117.67	466
2116.02	496.75
2114.38	459.5
2112.74	482.25
2111.09	455.5
2109.45	448
2107.8	483.25
2106.15	474.75
2104.51	468.5
2102.86	457
2101.21	428.5
2099.56	462
2097.92	463.75
2096.27	424.75
2094.62	445.25
2092.97	463.75
2091.32	433.25
2089.67	425
2088.02	472.25
2086.37	452.25
2084.72	454.75
2083.06	431.25
2081.41	431
2079.76	434.75
2078.1	435
2076.45	466.75
2074.8	441
2073.14	419
2071.49	428
2069.83	436
2068.18	410.25
2066.52	414.25
2064.86	422
2063.21	417.25
2061.55	431.25
2059.89	408.25
2058.23	424.25
2056.57	423
2054.92	400
2053.26	430.75
2051.6	419.25
2049.94	416.5
2048.27	412.25
2046.61	405.75
2044.95	407
2043.29	439.75
2041.63	405
2039.97	416
2038.3	414.25
2036.64	417.25
2034.97	388.75
2033.31	386.5
2031.64	395.75
2029.98	403.5
2028.31	387
2026.65	368.75
2024.98	400
2023.31	395.5
2021.65	399.25
2019.98	372.75
2018.31	370
2016.64	392
2014.97	387
2013.3	371.75
2011.63	376
2009.96	370.25
2008.29	404.5
2006.62	387
2004.95	374
2003.28	378.5
2001.6	358.25
1999.93	380
1998.26	394.75
1996.58	368.5
1994.91	380
1993.24	362.5
1991.56	374.5
1989.89	357.25
1988.21	339.75
1986.53	385.75
1984.86	384.75
1983.18	380.75
1981.5	365.25
1979.82	345
1978.15	363.75
1976.47	372.75
1974.79	338.75
1973.11	349
1971.43	347
1969.75	362.25
1968.07	363.25
1966.38	351.5
1964.7	381.25
1963.02	359.5
1961.34	339.75
1959.66	347.25
1957.97	350.25
1956.29	325.75
1954.6	349.5
1952.92	352
1951.23	349.25
1949.55	351.25
1947.86	366.5
1946.18	331
1944.49	337
1942.8	345.75
1941.11	314
1939.43	301.5
1937.74	325.25
1936.05	339
1934.36	328.75
1932.67	321.75
1930.98	319.25
1929.29	335.5
1927.6	332.75
1925.91	339.25
1924.21	303.75
1922.52	339.5
1920.83	329.5
1919.14	309.75
1917.44	314
1915.75	314.5
1914.05	300.25
1912.36	335
1910.66	318.75
1908.97	309.5
1907.27	313.25
1905.58	310.25
1903.88	329
1902.18	307
1900.48	317
1898.79	320.5
1897.09	299
1895.39	318.75
1893.69	278.75
1891.99	284.75
1890.29	298.75
1888.59	282.25
1886.89	287.75
1885.18	310.75
1883.48	291.75
1881.78	309.5
1880.08	302
1878.37	267
1876.67	296.5
1874.96	285
1873.26	299
1871.55	308.5
1869.85	292.5
1868.14	297.25
1866.44	264
1864.73	308.5
1863.02	251.5
1861.32	270.75
1859.61	278
1857.9	276.75
1856.19	283
1854.48	284.5
1852.77	269.5
1851.06	280
1849.35	270.5
1847.64	285.75
1845.93	268.5
1844.21	261.25
1842.5	255.75
1840.79	272.5
1839.08	256.75
1837.36	277
1835.65	279
1833.93	266.75
1832.22	278
1830.5	247.25
1828.79	231.75
1827.07	256
1825.36	262.75
1823.64	254
1821.92	267.5
1820.2	247.5
1818.48	246.5
1816.77	248
1815.05	282.5
1813.33	253
1811.61	257.75
1809.89	255
1808.16	239.25
1806.44	253.5
1804.72	252.25
1803	228
1801.28	247.25
1799.55	240.75
1797.83	261.25
1796.11	231.5
1794.38	255.25
1792.66	236.75
1790.93	219.75
1789.21	233
1787.48	246.75
1785.75	244
1784.03	247
1782.3	236.5
1780.57	239.25
1778.84	250.25
1777.11	231.75
1775.38	251.25
1773.66	237
1771.93	237
1770.19	235.5
1768.46	240.25
1766.73	259.5
1765	257.75
1763.27	245.25
1761.54	291.75
1759.8	302.25
1758.07	279.75
1756.34	317.5
1754.6	327.25
1752.87	336.5
1751.13	351.5
1749.4	361.25
1747.66	345.75
1745.92	376.75
1744.19	353
1742.45	337.5
1740.71	343.5
1738.97	308.5
1737.23	297.5
1735.49	282.5
1733.75	300.25
1732.01	274.75
1730.27	276
1728.53	270.5
1726.79	257.75
1725.05	260.25
1723.31	233
1721.57	255.5
1719.82	246.5
1718.08	229.5
1716.34	215.25
1714.59	227.75
1712.85	255.5
1711.1	227
1709.36	238.75
1707.61	244
1705.86	212
1704.12	233
1702.37	224
1700.62	224.25
1698.87	215.5
1697.12	225
1695.37	207.25
1693.62	238.5
1691.87	194
1690.12	245
1688.37	213.25
1686.62	224
1684.87	226.5
1683.12	223.75
1681.36	274
1679.61	227
1677.86	249
1676.1	265.5
1674.35	278.5
1672.59	321
1670.84	299.75
1669.08	339.25
1667.33	376.75
1665.57	384.5
1663.81	409.5
1662.06	477
1660.3	523.5
1658.54	540.25
1656.78	580.25
1655.02	574.75
1653.26	523
1651.5	460.5
1649.74	446.25
1647.98	386.5
1646.22	347
1644.46	313.25
1642.7	302.25
1640.93	279.5
1639.17	286.5
1637.41	248.75
1635.64	254
1633.88	258.25
1632.11	215.25
1630.35	223.5
1628.58	236.75
1626.81	224.25
1625.05	221.75
1623.28	214
1621.51	223.75
1619.75	224.5
1617.98	200
1616.21	198
1614.44	214
1612.67	194
1610.9	200
1609.13	205.25
1607.36	211
1605.58	202.5
1603.81	200.5
1602.04	212
1600.27	211.75
1598.49	196
1596.72	177
1594.95	192.25
1593.17	206.25
1591.4	169.5
1589.62	208.5
1587.84	199.25
1586.07	182
1584.29	190
1582.51	208.25
1580.74	198.75
1578.96	185.25
1577.18	187
1575.4	188
1573.62	237.5
1571.84	203.75
1570.06	205
1568.28	212
1566.5	200
1564.72	195.75
1562.93	181.5
1561.15	203
1559.37	216.75
1557.58	187.25
1555.8	197
1554.02	210.5
1552.23	205.25
1550.45	180.25
1548.66	209.25
1546.87	243.75
1545.09	187.5
1543.3	206.5
1541.51	198.25
1539.72	201.75
1537.94	191.25
1536.15	199
1534.36	200
1532.57	210
1530.78	193.25
1528.99	224.75
1527.2	204.25
1525.4	209.5
1523.61	203
1521.82	208.75
1520.03	191
1518.23	218.5
1516.44	228.75
1514.65	210
1512.85	232.25
1511.06	207.75
1509.26	244.5
1507.46	235.25
1505.67	237.25
1503.87	225.75
1502.07	252
1500.28	254.25
1498.48	261.25
1496.68	258
1494.88	278
1493.08	280
1491.28	275.5
1489.48	269.5
1487.68	288.75
1485.88	309.5
1484.08	317
1482.27	356.25
1480.47	382
1478.67	399.75
1476.86	433.75
1475.06	484.25
1473.25	520
1471.45	608
1469.64	605.5
1467.84	674.75
1466.03	756.5
1464.23	797.75
1462.42	857
1460.61	928.5
1458.8	1004.5
1456.99	1030.75
1455.18	1057.25
1453.37	1118.75
1451.56	1118
1449.75	1167.75
1447.94	1223.75
1446.13	1278.5
1444.32	1328.5
1442.51	1371.5
1440.7	1389.5
1438.88	1340.25
1437.07	1252
1435.26	1134.25
1433.44	1019.5
1431.63	876
1429.81	703.5
1427.99	615
1426.18	589.5
1424.36	538.25
1422.54	477.75
1420.73	460.5
1418.91	459
1417.09	422.5
1415.27	373
1413.45	379
1411.63	344.5
1409.81	330.5
1407.99	308.5
1406.17	298.75
1404.35	304.75
1402.53	275
1400.7	285.5
1398.88	289
1397.06	255.25
1395.23	256.5
1393.41	272.5
1391.58	240
1389.76	273.5
1387.93	263
1386.11	268.5
1384.28	239.5
1382.45	277.75
1380.62	276.5
1378.8	230.5
1376.97	284
1375.14	281
1373.31	310.5
1371.48	299.5
1369.65	321.75
1367.82	336.75
1365.99	306
1364.16	306.75
1362.32	297
1360.49	310.25
1358.66	305.5
1356.82	311
1354.99	302.75
1353.16	302
1351.32	294.5
1349.48	337
1347.65	326.25
1345.81	304.75
1343.98	330
1342.14	315.25
1340.3	345.25
1338.46	313.5
1336.62	344.5
1334.79	352.5
1332.95	383.5
1331.11	403.5
1329.27	436.25
1327.42	451
1325.58	479
1323.74	511.5
1321.9	536
1320.06	585.25
1318.21	619.5
1316.37	676.25
1314.53	698.5
1312.68	791.75
1310.84	817
1308.99	905.75
1307.15	978.75
1305.3	992.75
1303.45	1007
1301.61	1035.5
1299.76	1056
1297.91	967.25
1296.06	910.25
1294.21	826.75
1292.36	745
1290.51	656.5
1288.66	605.25
1286.81	624.25
1284.96	602.25
1283.11	571.25
1281.26	601.25
1279.4	579.5
1277.55	563
1275.7	543.75
1273.84	582.5
1271.99	579.75
1270.13	573.25
1268.28	564.5
1266.42	595.5
1264.56	581.75
1262.71	535
1260.85	537
1258.99	538.75
1257.13	502.25
1255.27	470.75
1253.41	460
1251.56	449.5
1249.7	433
1247.83	371.75
1245.97	405.75
1244.11	387.5
1242.25	370.5
1240.39	329.5
1238.52	353.75
1236.66	360
1234.8	342.5
1232.93	305.5
1231.07	324.75
1229.2	325.5
1227.34	294.5
1225.47	299
1223.6	260.5
1221.74	299.75
1219.87	269.5
1218	269
1216.13	282
1214.26	254.75
1212.39	266.75
1210.53	276.75
1208.65	259.5
1206.78	289.5
1204.91	271
1203.04	271.5
1201.17	290.5
1199.3	257.25
1197.42	260.25
1195.55	281
1193.68	286.5
1191.8	251.5
1189.93	270.75
1188.05	285
1186.17	281.5
1184.3	252
1182.42	283
1180.54	276.75
1178.67	258.25
1176.79	259.25
1174.91	290.5
1173.03	285.5
1171.15	285.75
1169.27	293
1167.39	298.5
1165.51	278
1163.63	278.5
1161.75	284.25
1159.86	279
1157.98	271.75
1156.1	285
1154.21	303.75
1152.33	306
1150.44	313
1148.56	301.5
1146.67	305
1144.79	355.75
1142.9	323.5
1141.01	316.75
1139.12	326
1137.24	351.25
1135.35	351.25
1133.46	393.75
1131.57	451.75
1129.68	484.25
1127.79	477.25
1125.9	503.75
1124.01	494.25
1122.12	472
1120.22	475
1118.33	477.25
1116.44	448.5
1114.54	446
1112.65	427.25
1110.75	438
1108.86	481
1106.96	457.75
1105.07	513.25
1103.17	514.75
1101.27	564
1099.38	545.5
1097.48	590.75
1095.58	637.5
1093.68	669
1091.78	683.5
1089.88	744.75
1087.98	770.5
1086.08	765.25
1084.18	788.5
1082.28	786.75
1080.38	804.75
1078.47	762.75
1076.57	763.25
1074.67	751.75
1072.76	732.5
1070.86	718.5
1068.95	769.75
1067.05	788
1065.14	807.75
1063.24	764
1061.33	742.25
1059.42	698.75
1057.51	622.25
1055.6	543.75
1053.7	552.5
1051.79	534.75
1049.88	511.25
1047.97	482.5
1046.06	511.25
1044.14	507.75
1042.23	507.75
1040.32	482
1038.41	503.25
1036.5	496
1034.58	461.75
1032.67	468.5
1030.75	464.5
1028.84	498.75
1026.92	443.5
1025.01	465.75
1023.09	478
1021.17	463
1019.26	450
1017.34	476.5
1015.42	442.5
1013.5	455.75
1011.58	413.25
1009.66	448
1007.74	415.25
1005.82	407.25
1003.9	397.5
1001.98	401.5
1000.06	386.75
998.134	371.5
996.212	373
994.288	384.75
992.364	372.25
990.44	386.5
988.515	400.75
986.589	424.25
984.663	424.25
982.737	444.75
980.81	411
978.883	433.25
976.955	473
975.027	491
973.098	496.5
971.169	487.5
969.239	482.25
967.308	507.75
965.378	458
963.447	483
961.516	450
959.583	489
957.65	483
955.718	491
953.784	459.75
951.85	472.25
949.916	503
947.981	492
946.045	511
944.109	508
942.173	529
940.236	522.25
938.298	515.75
936.36	499
934.422	512.75
932.484	541.75
930.544	525.5
928.604	524
926.664	543.5
924.724	491.75
922.782	530.75
920.84	551
918.898	532.75
916.955	522.5
915.012	557.25
913.068	529.5
911.124	546.75
909.18	521.75
907.235	556.5
905.289	536.75
903.343	527.25
901.397	564.25
899.45	576
897.502	593.75
895.554	617.5
893.605	635
891.657	681
889.707	674.5
887.758	665.25
885.807	623.75
883.856	642.75
881.905	665.25
879.953	678.75
878.001	670
876.048	701.75
874.094	675.5
872.14	688
870.186	708.5
868.232	678.5
866.276	668.5
864.321	646.5
862.365	661
860.408	675.5
858.451	640
856.493	628.75
854.535	638.25
852.576	651.25
850.617	638.5
848.658	632.5
846.698	665.25
844.737	640.75
842.776	598.5
840.814	587.5
838.852	632.5
836.89	576.5
834.927	565.5
832.963	517.75
830.999	532
829.035	494.5
827.07	477.25
825.105	489.25
823.139	475
821.172	437.75
819.206	454
817.238	439
815.27	429
813.301	404
811.333	408
809.363	399
807.394	366
805.424	379.5
803.453	357.75
801.482	351
799.509	328.75
797.538	337.75
795.565	303.75
793.592	315.25
791.618	302.5
789.643	314.75
787.669	285.75
785.693	302.25
783.718	297.75
781.742	305.75
779.765	302.5
777.788	289.25
775.811	296
773.832	295.75
771.853	300
769.875	285
767.895	283
765.915	278.75
763.934	278
761.953	276
759.972	293
757.99	284.75
756.007	276
754.024	286.25
752.041	304
750.056	295
748.072	291.75
746.087	265.75
744.102	306.5
742.116	295.75
740.13	275.5
738.143	282.25
736.155	330.25
734.167	274
732.179	312.75
730.19	290.75
728.2	308
726.21	307
724.22	289.25
722.229	320
720.237	295.75
718.246	283.5
716.253	305.75
714.26	286.25
712.267	248.75
710.273	253
708.279	258.75
706.284	252
704.289	254.25
702.293	229
700.296	242
698.3	245
696.303	223.5
694.305	236.75
692.307	228
690.307	231.75
688.308	257
686.309	215.5
684.308	244.25
682.308	230.25
680.306	233.25
678.304	230.25
676.302	236.25
674.3	231.25
672.296	254.25
670.293	249.25
668.289	234.25
666.284	225
664.278	230.75
662.273	221
660.266	244
658.26	239.75
656.252	243.75
654.244	232.75
652.237	250
650.227	276.75
648.218	228.75
646.209	258.5
644.198	250
642.188	237.75
640.177	267
638.165	280.25
636.153	268
634.14	261
632.128	284.5
630.113	272.25
628.099	256.5
626.085	280
624.07	293.75
622.054	280.5
620.038	303.75
618.021	297.75
616.004	298
613.986	318.5
611.968	308.25
609.949	293.75
607.93	343.25
605.911	338.75
603.891	317.25
601.87	330.75
599.848	320.75
597.827	314.75
595.805	312
593.782	306
591.759	312.5
589.735	302
587.711	287.25
585.687	311.25
583.661	296.75
581.636	261.5
579.609	307.25
577.583	290
575.555	273.75
573.527	246.25
571.5	276.75
569.471	269.25
567.441	268.5
565.412	249.25
563.382	282.5
561.351	249
559.32	290.75
557.289	275.5
555.257	294.5
553.223	289.5
551.19	302.5
549.157	309.25
547.122	310.75
545.088	353.5
543.053	339
541.017	373.75
538.981	364
536.943	419.25
534.907	443
532.869	562
530.831	693.5
528.792	959.25
526.752	1386.5
524.713	1915.75
522.673	2398.75
520.632	2395
518.591	2033.25
516.549	1532.25
514.507	1073.5
512.464	807.5
510.42	620.5
508.377	510.5
506.332	462.5
504.288	435.5
502.242	399.5
500.196	407
498.15	360
496.104	407
494.056	397.25
492.008	378.75
489.96	344
487.911	360.75
485.862	381
483.812	394
481.761	363.5
479.71	371.75
477.659	390
475.607	373.75
473.555	367
471.502	389.75
469.448	384
467.395	358.5
465.34	367
463.285	403.5
461.23	379.25
459.174	365.75
457.118	386
455.061	388.25
453.003	384.5
450.945	357.5
448.887	380.5
446.828	416.25
444.768	357.5
442.708	396
440.647	380.25
438.587	400
436.525	409.5
434.463	372.75
432.4	386.75
430.337	414.75
428.274	409
426.21	409.5
424.145	434.5
422.079	391.5
420.014	389.25
417.948	421.5
415.882	426.25
413.814	429.5
411.746	451.75
409.679	406.5
407.609	446.75
405.54	452
403.47	446.25
401.401	426.25
399.329	461
397.258	430.25
395.187	428.5
393.114	427.75
391.041	447.25
388.968	434.5
386.895	463.25
384.82	416.5
382.745	436.5
380.67	455
378.594	408
376.517	446.25
374.44	451
372.363	455.25
370.286	410.75
368.207	474.5
366.128	490.75
364.049	465.5
361.969	492.75
359.888	496.75
357.807	479.25
355.725	479
353.643	457.25
351.561	469
349.477	495
347.394	444.75
345.31	490.25
343.226	497
341.141	479
339.055	491.75
336.968	510
334.882	507.25
332.795	496
330.707	529.25
328.618	481
326.53	547.25
324.44	520.75
322.351	546.5
320.26	508.5
318.17	570.75
316.078	547
313.987	580
311.895	580
309.802	607.5
307.708	615.25
305.614	610.5
303.52	636
301.425	609.75
299.329	626
297.233	654
295.137	655.25
293.039	628
290.942	630.5
288.844	638.5
286.745	637.75
284.647	613.75
282.546	668.75
280.446	678.5
278.346	666.5
276.245	679.25
274.143	698.5
272.041	688
269.939	709
267.835	729.25
265.731	741.25
263.627	772.75
261.522	737
259.417	781.5
257.311	800.25
255.204	749.5
253.098	805.25
250.99	795.25
248.882	838
246.774	846.5
244.664	814.25
242.555	853.25
240.445	852
238.334	859
236.223	897.25
234.112	904
232	919.5
229.888	959.25
227.775	923.75
225.661	984.75
223.546	944
221.431	956.5
219.316	982.25
217.201	981
215.084	1003
212.967	1016.5
210.85	998.75
208.732	1006.75
206.614	1005.25
204.495	1014.75
202.375	981.25
200.256	1004
198.135	988
196.014	943.25
193.893	1014
191.771	1032.5
189.648	990
187.525	980.5
185.401	980.5
183.277	992.75
181.152	967.25
179.027	995.5
176.901	992.25
174.775	971
172.648	1019.25
170.521	1041
168.393	1069
166.265	1050
164.136	1080
162.007	1067.75
159.876	1059
157.746	1105
155.615	1115
153.483	1177.25
151.351	1218.5
149.219	1236.75
147.086	1276.75
144.952	1253
142.818	1308
140.684	1356.25
138.548	1399
136.413	1443.75
134.276	1458.25
132.139	1569.75
130.002	1571.5
127.864	1619.75
125.725	1713.75
123.587	1763.25
121.447	1851.75
119.307	1912
117.166	1938.5
115.026	2031.5
112.885	2120.5
110.743	2180
108.6	2208.75
106.456	2311.75
104.313	2308.5
102.169	2319.25
100.023	2230.75
97.8789	2094.25
95.7328	1879.5
93.5869	1670
91.4392	1406.5
89.2919	1123
87.1447	932.25
84.9959	712.5
