3528.51	33.5
3527.23	41
3525.95	32
3524.67	35
3523.39	41
3522.1	42.5
3520.82	38.5
3519.54	38.5
3518.26	44
3516.97	43
3515.69	45
3514.4	48
3513.12	47.5
3511.84	48
3510.55	35
3509.26	43
3507.98	50.5
3506.69	40.5
3505.41	53.5
3504.12	53
3502.83	52
3501.54	45.5
3500.26	49
3498.97	54
3497.68	43
3496.39	43.5
3495.1	48.5
3493.81	55
3492.52	49.5
3491.23	49
3489.94	54
3488.65	65
3487.36	58.5
3486.07	54.5
3484.78	57.5
3483.49	58.5
3482.19	63
3480.9	59.5
3479.61	57.5
3478.31	53
3477.02	53
3475.73	66
3474.43	65.5
3473.14	62
3471.84	73
3470.54	68
3469.25	63.5
3467.95	59
3466.66	66
3465.36	65.5
3464.06	64
3462.76	62
3461.46	65
3460.17	69.5
3458.87	72.5
3457.57	72.5
3456.27	70
3454.97	74
3453.67	75.5
3452.37	68
3451.07	64
3449.77	65
3448.47	70.5
3447.16	72
3445.86	69.5
3444.56	75.5
3443.26	75.5
3441.95	90
3440.65	87
3439.35	83
3438.04	90
3436.74	73
3435.43	82
3434.13	85.5
3432.82	85
3431.52	89
3430.21	90.5
3428.9	94
3427.6	101
3426.29	102.5
3424.98	101.5
3423.67	99.5
3422.36	99
3421.06	97.5
3419.75	93.5
3418.44	104
3417.13	105.5
3415.82	102.5
3414.51	110
3413.2	103.5
3411.88	111
3410.57	116.5
3409.26	113
3407.95	110
3406.64	105.5
3405.32	119
3404.01	100.5
3402.7	117.5
3401.38	111
3400.07	114.5
3398.75	113
3397.44	115
3396.12	128.5
3394.81	122
3393.49	124
3392.18	117
3390.86	129.5
3389.54	119.5
3388.23	123
3386.91	128
3385.59	123
3384.27	127.5
3382.95	127
3381.63	127
3380.31	143.5
3378.99	139
3377.67	141.5
3376.35	135
3375.03	132
3373.71	129
3372.39	133.5
3371.07	129
3369.75	141
3368.42	144.5
3367.1	143.5
3365.78	153
3364.45	154
3363.13	153
3361.81	151
3360.48	149.5
3359.16	144.5
3357.83	149.5
3356.51	150
3355.18	153.5
3353.85	153.5
3352.53	158.5
3351.2	161
3349.87	160
3348.54	152
3347.22	158.5
3345.89	154
3344.56	144
3343.23	151.5
3341.9	145
3340.57	145
3339.24	157.5
3337.91	166.5
3336.58	161
3335.25	163.5
3333.92	165
3332.58	151
3331.25	157.5
3329.92	159.5
3328.59	161
3327.25	162.5
3325.92	167
3324.58	159
3323.25	165.5
3321.92	171
3320.58	177.5
3319.25	184
3317.91	172
3316.57	172.5
3315.24	178.5
3313.9	164.5
3312.56	159
3311.23	167
3309.89	175
3308.55	177
3307.21	174.5
3305.87	180.5
3304.53	189
3303.19	185
3301.85	181
3300.51	183
3299.17	178.5
3297.83	176
3296.49	181.5
3295.15	194.5
3293.81	186.5
3292.46	181
3291.12	182
3289.78	182
3288.43	189
3287.09	197.5
3285.75	196
3284.4	186.5
3283.06	191
3281.71	189
3280.37	194
3279.02	188
3277.67	201
3276.33	199
3274.98	188
3273.63	214.5
3272.28	198
3270.94	206
3269.59	189
3268.24	203.5
3266.89	199.5
3265.54	200
3264.19	207.5
3262.84	217
3261.49	215.5
3260.14	226
3258.79	237
3257.44	230.5
3256.08	233
3254.73	239
3253.38	235.5
3252.03	244.5
3250.67	251.5
3249.32	257
3247.96	259
3246.61	273
3245.26	275
3243.9	281.5
3242.54	296.5
3241.19	307
3239.83	306
3238.48	315
3237.12	317.5
3235.76	332
3234.41	330.5
3233.05	353
3231.69	360.5
3230.33	360
3228.97	369
3227.61	386
3226.25	397
3224.89	385
3223.53	388.5
3222.17	394
3220.81	408.5
3219.45	408
3218.09	401.5
3216.72	412.5
3215.36	425.5
3214	424
3212.63	438.5
3211.27	430.5
3209.91	438.5
3208.54	434.5
3207.18	435
3205.81	434
3204.45	438.5
3203.08	448.5
3201.71	458
3200.35	449.5
3198.98	454.5
3197.61	471.5
3196.25	468
3194.88	474
3193.51	469.5
3192.14	471.5
3190.77	471.5
3189.4	463.5
3188.03	479
3186.66	472.5
3185.29	482
3183.92	495.5
3182.55	488
3181.18	501.5
3179.81	494
3178.44	493.5
3177.06	504.5
3175.69	500.5
3174.32	499.5
3172.94	509.5
3171.57	513.5
3170.2	516
3168.82	516.5
3167.45	513
3166.07	527
3164.69	540.5
3163.32	529
3161.94	534
3160.56	541.5
3159.19	547
3157.81	550
3156.43	534
3155.05	563
3153.67	567.5
3152.3	571.5
3150.92	571.5
3149.54	579
3148.16	589.5
3146.78	599.5
3145.4	587.5
3144.01	569.5
3142.63	605.5
3141.25	591.5
3139.87	601
3138.49	609
3137.1	613.5
3135.72	613.5
3134.34	622
3132.95	626.5
3131.57	623.5
3130.18	623
3128.8	628.5
3127.41	639
3126.03	636.5
3124.64	648
3123.25	652
3121.87	648.5
3120.48	667.5
3119.09	665
3117.7	674.5
3116.32	672
3114.93	673
3113.54	680
3112.15	683
3110.76	668
3109.37	671
3107.98	681.5
3106.59	678.5
3105.2	692
3103.8	691.5
3102.41	702.5
3101.02	710
3099.63	709
3098.23	698
3096.84	714.5
3095.45	717
3094.05	711.5
3092.66	712.5
3091.26	720
3089.87	724.5
3088.47	727.5
3087.08	736.5
3085.68	722.5
3084.28	732.5
3082.89	728
3081.49	750.5
3080.09	720.5
3078.69	730
3077.3	731
3075.9	725
3074.5	750
3073.1	738.5
3071.7	743
3070.3	748.5
3068.9	752
3067.5	762.5
3066.09	755.5
3064.69	756.5
3063.29	737.5
3061.89	752.5
3060.48	739.5
3059.08	774
3057.68	773
3056.27	765
3054.87	766.5
3053.46	780
3052.06	779.5
3050.65	769
3049.25	773
3047.84	775
3046.44	788
3045.03	784.5
3043.62	790.5
3042.21	802
3040.81	784.5
3039.4	793.5
3037.99	799.5
3036.58	813.5
3035.17	804
3033.76	807
3032.35	821
3030.94	797
3029.53	818
3028.12	809.5
3026.71	817
3025.29	816
3023.88	822
3022.47	834.5
3021.06	838.5
3019.64	822
3018.23	836
3016.82	838.5
3015.4	835.5
3013.99	848
3012.57	829
3011.15	839.5
3009.74	846.5
3008.32	845
3006.91	851
3005.49	851.5
3004.07	853
3002.65	846.5
3001.24	867
2999.82	875
2998.4	860.5
2996.98	872.5
2995.56	873.5
2994.14	878
2992.72	887
2991.3	891.5
2989.88	896
2988.46	906
2987.03	923
2985.61	915
2984.19	909.5
2982.77	925.5
2981.34	936
2979.92	924.5
2978.49	928
2977.07	947.5
2975.65	958.5
2974.22	961.5
2972.79	981.5
2971.37	993
2969.94	988
2968.52	980.5
2967.09	976
2965.66	971.5
2964.23	1014.5
2962.81	1007.5
2961.38	1015
2959.95	1026.5
2958.52	1021.5
2957.09	1027.5
2955.66	1026.5
2954.23	1011
2952.8	1039
2951.37	1045
2949.94	1031.5
2948.5	1045
2947.07	1048
2945.64	1093
2944.21	1086
2942.77	1089.5
2941.34	1094.5
2939.91	1101
2938.47	1113.5
2937.04	1113.5
2935.6	1132
2934.17	1127
2932.73	1152.5
2931.29	1157
2929.86	1142
2928.42	1154
2926.98	1163.5
2925.55	1168.5
2924.11	1200.5
2922.67	1188
2921.23	1185.5
2919.79	1180
2918.35	1186
2916.91	1188
2915.47	1201.5
2914.03	1193.5
2912.59	1218
2911.15	1205.5
2909.71	1227
2908.26	1218.5
2906.82	1215
2905.38	1226.5
2903.94	1239
2902.49	1255
2901.05	1258
2899.6	1243
2898.16	1273.5
2896.71	1243.5
2895.27	1284
2893.82	1261
2892.38	1265
2890.93	1266.5
2889.48	1279
2888.03	1272
2886.59	1287.5
2885.14	1263.5
2883.69	1278
2882.24	1264.5
2880.79	1266.5
2879.34	1274
2877.89	1276.5
2876.44	1282
2874.99	1278.5
2873.54	1289
2872.09	1269
2870.64	1292.5
2869.18	1264.5
2867.73	1277
2866.28	1284.5
2864.83	1277
2863.37	1267
2861.92	1287
2860.46	1288.5
2859.01	1287
2857.55	1282.5
2856.1	1282.5
2854.64	1295.5
2853.19	1293.5
2851.73	1293
2850.27	1301.5
2848.81	1279.5
2847.36	1297.5
2845.9	1282
2844.44	1244.5
2842.98	1240.5
2841.52	1234
2840.06	1210
2838.6	1206.5
2837.14	1177
2835.68	1161
2834.22	1159.5
2832.76	1145.5
2831.3	1132
2829.83	1126
2828.37	1131.5
2826.91	1105
2825.44	1091.5
2823.98	1096
2822.52	1096
2821.05	1104
2819.59	1089.5
2818.12	1065.5
2816.66	1071
2815.19	1060.5
2813.72	1060.5
2812.26	1054
2810.79	1052
2809.32	1065
2807.85	1049.5
2806.38	1051
2804.92	1028
2803.45	1038
2801.98	1025
2800.51	1029
2799.04	1041.5
2797.57	1017
2796.1	1030
2794.62	1038
2793.15	1021
2791.68	1029.5
2790.21	1031.5
2788.73	1021
2787.26	1022
2785.79	1034
2784.31	1022
2782.84	1016
2781.36	997
2779.89	1016
2778.41	1008
2776.94	1027
2775.46	1014.5
2773.99	1023.5
2772.51	1023
2771.03	1023
2769.55	1032
2768.07	1042
2766.6	1016
2765.12	1038
2763.64	1007
2762.16	1015.5
2760.68	1027.5
2759.2	1008
2757.72	1013
2756.24	1029
2754.75	1014
2753.27	1035
2751.79	1016.5
2750.31	1020
2748.82	1006
2747.34	1013.5
2745.86	1006.5
2744.37	1024.5
2742.89	1018.5
2741.4	1044
2739.92	1021
2738.43	1009.5
2736.94	1031.5
2735.46	1027
2733.97	1032
2732.48	1017
2731	1026.5
2729.51	1013
2728.02	1014
2726.53	1026
2725.04	1015
2723.55	1015
2722.06	1032.5
2720.57	1022
2719.08	1032
2717.59	1007.5
2716.1	1031
2714.61	1020.5
2713.11	1004.5
2711.62	1026.5
2710.13	1016
2708.64	1001
2707.14	1007
2705.65	1006
2704.15	1018
2702.66	1013.5
2701.16	1004.5
2699.67	999
2698.17	1017.5
2696.67	989
2695.18	1007.5
2693.68	983
2692.18	1001.5
2690.69	986
2689.19	975.5
2687.69	1001.5
2686.19	988.5
2684.69	992.5
2683.19	977
2681.69	972.5
2680.19	978
2678.69	964
2677.19	960.5
2675.68	955
2674.18	959
2672.68	968.5
2671.18	969.5
2669.67	963.5
2668.17	967
2666.66	969
2665.16	966.5
2663.66	969.5
2662.15	951.5
2660.64	955
2659.14	942
2657.63	954
2656.13	961.5
2654.62	949
2653.11	954
2651.6	955
2650.09	950
2648.58	934
2647.08	953
2645.57	942.5
2644.06	938.5
2642.55	933
2641.04	947.5
2639.52	931
2638.01	918.5
2636.5	928
2634.99	937
2633.48	920
2631.96	917.5
2630.45	928
2628.94	930
2627.42	905.5
2625.91	926.5
2624.39	912
2622.88	906
2621.36	914
2619.85	907
2618.33	924.5
2616.81	924
2615.3	923
2613.78	899
2612.26	907
2610.74	894.5
2609.22	908.5
2607.7	894
2606.18	901
2604.66	889.5
2603.14	889
2601.62	886
2600.1	893
2598.58	889
2597.06	868.5
2595.54	875.5
2594.01	884
2592.49	885.5
2590.97	863.5
2589.44	863
2587.92	886
2586.39	859.5
2584.87	881
2583.34	874.5
2581.82	880
2580.29	859.5
2578.76	873
2577.24	864
2575.71	849.5
2574.18	837.5
2572.65	863.5
2571.13	858.5
2569.6	860
2568.07	854
2566.54	851
2565.01	854.5
2563.48	840
2561.95	870
2560.42	847.5
2558.88	836.5
2557.35	844.5
2555.82	830
2554.29	828
2552.75	825.5
2551.22	834
2549.69	824.5
2548.15	823.5
2546.62	826.5
2545.08	828.5
2543.55	816
2542.01	815
2540.47	817
2538.94	824.5
2537.4	813
2535.86	811
2534.33	813
2532.79	801
2531.25	800.5
2529.71	813
2528.17	813
2526.63	799.5
2525.09	785
2523.55	772
2522.01	785
2520.47	788.5
2518.92	790
2517.38	792.5
2515.84	789.5
2514.3	768
2512.75	782.5
2511.21	771.5
2509.67	782
2508.12	758.5
2506.58	767
2505.03	771.5
2503.49	766.5
2501.94	755.5
2500.39	748
2498.85	758
2497.3	761
2495.75	740.5
2494.2	742.5
2492.65	738.5
2491.11	757.5
2489.56	734
2488.01	727.5
2486.46	740
2484.91	733.5
2483.36	743.5
2481.8	733.5
2480.25	726
2478.7	727
2477.15	745.5
2475.6	719
2474.04	719
2472.49	706
2470.93	701
2469.38	702.5
2467.83	696.5
2466.27	705.5
2464.71	689
2463.16	696.5
2461.6	686.5
2460.05	698.5
2458.49	694.5
2456.93	696.5
2455.37	674.5
2453.81	678
2452.26	668.5
2450.7	673.5
2449.14	680
2447.58	666
2446.02	662.5
2444.46	660
2442.9	665
2441.33	659
2439.77	669.5
2438.21	664
2436.65	657.5
2435.08	654.5
2433.52	651
2431.96	665
2430.39	657.5
2428.83	647
2427.26	654
2425.7	648
2424.13	645
2422.56	649
2421	630.5
2419.43	631
2417.86	629
2416.3	634.5
2414.73	633
2413.16	632
2411.59	629
2410.02	627.5
2408.45	626.5
2406.88	624
2405.31	623
2403.74	626
2402.17	625.5
2400.6	633
2399.02	625.5
2397.45	615.5
2395.88	627
2394.3	629
2392.73	627.5
2391.16	607
2389.58	631.5
2388.01	627.5
2386.43	618
2384.86	624.5
2383.28	619.5
2381.7	601.5
2380.13	616.5
2378.55	611
2376.97	593
2375.39	593.5
2373.81	614.5
2372.23	608.5
2370.65	623
2369.07	597
2367.49	600
2365.91	601
2364.33	588.5
2362.75	603.5
2361.17	587.5
2359.59	592
2358.01	576.5
2356.42	583.5
2354.84	590.5
2353.25	580
2351.67	585.5
2350.09	594.5
2348.5	578
2346.92	589.5
2345.33	588.5
2343.74	576.5
2342.16	574.5
2340.57	575.5
2338.98	563
2337.39	570
2335.81	571.5
2334.22	578
2332.63	575
2331.04	570.5
2329.45	601.5
2327.86	581.5
2326.27	562
2324.68	558.5
2323.09	561
2321.49	567
2319.9	565.5
2318.31	565
2316.72	560
2315.12	562
2313.53	542.5
2311.93	556
2310.34	550
2308.74	547
2307.15	542.5
2305.55	539.5
2303.96	539.5
2302.36	547
2300.76	546
2299.17	540
2297.57	537
2295.97	529.5
2294.37	531
2292.77	529.5
2291.17	534
2289.57	528
2287.97	517
2286.37	532
2284.77	529.5
2283.17	532
2281.57	531
2279.96	526
2278.36	517
2276.76	521.5
2275.15	513
2273.55	514.5
2271.95	518
2270.34	511
2268.74	508
2267.13	498.5
2265.52	490.5
2263.92	502
2262.31	497
2260.7	502
2259.1	495.5
2257.49	503.5
2255.88	499
2254.27	493.5
2252.66	481
2251.05	481
2249.44	496.5
2247.83	480.5
2246.22	478
2244.61	492.5
2243	490.5
2241.39	479
2239.77	492
2238.16	484.5
2236.55	467
2234.93	474
2233.32	471.5
2231.7	479
2230.09	469.5
2228.47	463
2226.86	457
2225.24	472.5
2223.63	468
2222.01	454
2220.39	469.5
2218.77	458
2217.16	459
2215.54	451
2213.92	466.5
2212.3	456
2210.68	456
2209.06	465.5
2207.44	452
2205.82	454
2204.19	460
2202.57	454.5
2200.95	443
2199.33	443
2197.7	442.5
2196.08	433.5
2194.46	438.5
2192.83	451.5
2191.21	437
2189.58	439
2187.96	436.5
2186.33	438.5
2184.7	424.5
2183.08	435.5
2181.45	434
2179.82	424.5
2178.19	418
2176.57	418.5
2174.94	423.5
2173.31	421.5
2171.68	423
2170.05	421.5
2168.42	417
2166.79	415.5
2165.16	417
2163.52	411
2161.89	408
2160.26	404
2158.63	398.5
2156.99	401.5
2155.36	393.5
2153.73	401.5
2152.09	397
2150.46	404
2148.82	396
2147.18	394
2145.55	396.5
2143.91	388.5
2142.27	393
2140.64	385.5
2139	395.5
2137.36	392
2135.72	380.5
2134.08	393
2132.44	380
2130.8	379
2129.16	384.5
2127.52	388
2125.88	385.5
2124.24	375
2122.6	357
2120.95	359
2119.31	359
2117.67	354.5
2116.02	364
2114.38	369
2112.74	363.5
2111.09	364.5
2109.45	362.5
2107.8	367
2106.15	350
2104.51	346
2102.86	349.5
2101.21	347.5
2099.56	348.5
2097.92	341
2096.27	348
2094.62	344
2092.97	350
2091.32	351.5
2089.67	344
2088.02	341.5
2086.37	351
2084.72	339
2083.06	336
2081.41	341.5
2079.76	334.5
2078.1	345.5
2076.45	340
2074.8	340
2073.14	342
2071.49	330.5
2069.83	332.5
2068.18	331
2066.52	327.5
2064.86	333.5
2063.21	311.5
2061.55	338.5
2059.89	316
2058.23	332
2056.57	330.5
2054.92	327
2053.26	324
2051.6	329
2049.94	318.5
2048.27	316
2046.61	322.5
2044.95	319.5
2043.29	319
2041.63	311
2039.97	309.5
2038.3	319.5
2036.64	305.5
2034.97	308.5
2033.31	312
2031.64	304
2029.98	312.5
2028.31	294
2026.65	303.5
2024.98	294.5
2023.31	301.5
2021.65	295
2019.98	297.5
2018.31	299
2016.64	293.5
2014.97	301.5
2013.3	288.5
2011.63	297
2009.96	295
2008.29	286
2006.62	280.5
2004.95	291.5
2003.28	276.5
2001.6	286
1999.93	290
1998.26	283.5
1996.58	293.5
1994.91	288
1993.24	294.5
1991.56	282
1989.89	286
1988.21	277.5
1986.53	274.5
1984.86	266
1983.18	271
1981.5	269
1979.82	267.5
1978.15	268
1976.47	267.5
1974.79	267
1973.11	274.5
1971.43	271
1969.75	276.5
1968.07	256
1966.38	243
1964.7	263
1963.02	272
1961.34	266.5
1959.66	259
1957.97	269.5
1956.29	268
1954.6	268.5
1952.92	264.5
1951.23	259
1949.55	253
1947.86	252
1946.18	255.5
1944.49	245
1942.8	254
1941.11	246
1939.43	248.5
1937.74	254.5
1936.05	255.5
1934.36	247
1932.67	254
1930.98	246
1929.29	238
1927.6	250
1925.91	236
1924.21	243
1922.52	238
1920.83	233.5
1919.14	243
1917.44	247
1915.75	244
1914.05	239.5
1912.36	240.5
1910.66	230
1908.97	234
1907.27	233
1905.58	233.5
1903.88	226.5
1902.18	230
1900.48	230
1898.79	222.5
1897.09	228
1895.39	224
1893.69	233
1891.99	221
1890.29	218.5
1888.59	220
1886.89	215.5
1885.18	215.5
1883.48	223.5
1881.78	218.5
1880.08	221
1878.37	221.5
1876.67	220
1874.96	206
1873.26	213
1871.55	215
1869.85	203.5
1868.14	207
1866.44	210.5
1864.73	209
1863.02	213
1861.32	195.5
1859.61	208.5
1857.9	197
1856.19	214.5
1854.48	198
1852.77	199
1851.06	210.5
1849.35	195
1847.64	200
1845.93	197
1844.21	212
1842.5	197
1840.79	203.5
1839.08	198.5
1837.36	197
1835.65	195
1833.93	189
1832.22	188
1830.5	193
1828.79	192
1827.07	191
1825.36	192.5
1823.64	185.5
1821.92	190.5
1820.2	188
1818.48	196
1816.77	187
1815.05	181
1813.33	182
1811.61	194.5
1809.89	183.5
1808.16	185.5
1806.44	179
1804.72	183
1803	180
1801.28	181
1799.55	180.5
1797.83	179.5
1796.11	178
1794.38	173.5
1792.66	175.5
1790.93	167.5
1789.21	180.5
1787.48	168.5
1785.75	171.5
1784.03	172.5
1782.3	182
1780.57	178.5
1778.84	170
1777.11	169.5
1775.38	169
1773.66	174
1771.93	173.5
1770.19	174.5
1768.46	180
1766.73	175
1765	189
1763.27	189
1761.54	198
1759.8	198
1758.07	208
1756.34	210.5
1754.6	219
1752.87	221.5
1751.13	222.5
1749.4	234
1747.66	235
1745.92	235
1744.19	236.5
1742.45	229
1740.71	223.5
1738.97	217
1737.23	214
1735.49	198.5
1733.75	192
1732.01	182.5
1730.27	183
1728.53	177
1726.79	182
1725.05	177
1723.31	171.5
1721.57	167.5
1719.82	177
1718.08	167
1716.34	158.5
1714.59	162
1712.85	159
1711.1	153
1709.36	158.5
1707.61	165.5
1705.86	155
1704.12	160.5
1702.37	163
1700.62	160.5
1698.87	161
1697.12	159
1695.37	144
1693.62	154
1691.87	144
1690.12	155.5
1688.37	163
1686.62	152
1684.87	158.5
1683.12	173
1681.36	163
1679.61	169
1677.86	169
1676.1	164
1674.35	184.5
1672.59	189
1670.84	204.5
1669.08	204
1667.33	228
1665.57	231.5
1663.81	265
1662.06	298
1660.3	320.5
1658.54	347
1656.78	347.5
1655.02	354.5
1653.26	310
1651.5	305
1649.74	272.5
1647.98	244
1646.22	220.5
1644.46	203
1642.7	195
1640.93	188
1639.17	181.5
1637.41	168.5
1635.64	166.5
1633.88	155
1632.11	153
1630.35	155
1628.58	154
1626.81	144
1625.05	151.5
1623.28	156
1621.51	149
1619.75	141.5
1617.98	140
1616.21	130.5
1614.44	142
1612.67	138.5
1610.9	136
1609.13	139.5
1607.36	134
1605.58	135.5
1603.81	144.5
1602.04	134.5
1600.27	134.5
1598.49	139
1596.72	144
1594.95	142
1593.17	134.5
1591.4	122
1589.62	123
1587.84	141.5
1586.07	131.5
1584.29	136
1582.51	146
1580.74	142
1578.96	128.5
1577.18	137.5
1575.4	142
1573.62	128
1571.84	130
1570.06	130
1568.28	126
1566.5	131
1564.72	138.5
1562.93	139
1561.15	127
1559.37	137
1557.58	140.5
1555.8	138
1554.02	135.5
1552.23	130
1550.45	131.5
1548.66	125.5
1546.87	130.5
1545.09	135.5
1543.3	132.5
1541.51	133
1539.72	136.5
1537.94	131
1536.15	143.5
1534.36	138
1532.57	127.5
1530.78	127
1528.99	128
1527.2	127.5
1525.4	132
1523.61	136
1521.82	140
1520.03	133
1518.23	142.5
1516.44	134.5
1514.65	145
1512.85	142
1511.06	139
1509.26	139.5
1507.46	142
1505.67	142.5
1503.87	152
1502.07	152.5
1500.28	160
1498.48	156
1496.68	166
1494.88	160
1493.08	170.5
1491.28	176
1489.48	173
1487.68	181.5
1485.88	189.5
1484.08	201
1482.27	209
1480.47	217
1478.67	233
1476.86	262
1475.06	282.5
1473.25	299
1471.45	335
1469.64	365
1467.84	398
1466.03	435
1464.23	452
1462.42	496
1460.61	521
1458.8	562
1456.99	577
1455.18	604
1453.37	620.5
1451.56	648.5
1449.75	661
1447.94	685.5
1446.13	716.5
1444.32	741
1442.51	777
1440.7	777
1438.88	760.5
1437.07	701
1435.26	647
1433.44	553
1431.63	493.5
1429.81	418
1427.99	375
1426.18	328
1424.36	293.5
1422.54	285
1420.73	267
1418.91	256
1417.09	255.5
1415.27	226
1413.45	207.5
1411.63	203.5
1409.81	200
1407.99	188
1406.17	172
1404.35	169.5
1402.53	173
1400.7	162.5
1398.88	166
1397.06	155.5
1395.23	170
1393.41	171.5
1391.58	159
1389.76	147.5
1387.93	157
1386.11	157.5
1384.28	151
1382.45	159
1380.62	167.5
1378.8	168
1376.97	175.5
1375.14	185
1373.31	168
1371.48	182
1369.65	183.5
1367.82	189.5
1365.99	184
1364.16	180
1362.32	177
1360.49	176.5
1358.66	167
1356.82	172
1354.99	179.5
1353.16	176
1351.32	194
1349.48	179.5
1347.65	187.5
1345.81	186
1343.98	188.5
1342.14	180
1340.3	187.5
1338.46	199
1336.62	202.5
1334.79	210.5
1332.95	209
1331.11	237
1329.27	239
1327.42	266.5
1325.58	269
1323.74	292
1321.9	303.5
1320.06	329
1318.21	347
1316.37	373
1314.53	404
1312.68	435
1310.84	479
1308.99	503
1307.15	538
1305.3	570
1303.45	566.5
1301.61	575
1299.76	588
1297.91	540
1296.06	522
1294.21	460.5
1292.36	421
1290.51	396.5
1288.66	364
1286.81	343
1284.96	328
1283.11	330.5
1281.26	327
1279.4	304
1277.55	299
1275.7	314
1273.84	332
1271.99	339
1270.13	342
1268.28	327.5
1266.42	318.5
1264.56	317
1262.71	307
1260.85	302
1258.99	291
1257.13	271.5
1255.27	262
1253.41	256
1251.56	252
1249.7	242
1247.83	238.5
1245.97	223.5
1244.11	222
1242.25	215
1240.39	213
1238.52	190
1236.66	187.5
1234.8	189.5
1232.93	181
1231.07	182.5
1229.2	172
1227.34	175.5
1225.47	172
1223.6	169
1221.74	160
1219.87	164
1218	156
1216.13	161.5
1214.26	157
1212.39	145
1210.53	160.5
1208.65	162
1206.78	163
1204.91	158
1203.04	163
1201.17	161.5
1199.3	157.5
1197.42	156
1195.55	153.5
1193.68	147
1191.8	150.5
1189.93	148
1188.05	152.5
1186.17	156.5
1184.3	154.5
1182.42	160.5
1180.54	165.5
1178.67	159
1176.79	161
1174.91	165.5
1173.03	160.5
1171.15	159.5
1169.27	159.5
1167.39	154
1165.51	159.5
1163.63	166.5
1161.75	163
1159.86	158.5
1157.98	161
1156.1	167
1154.21	161
1152.33	170
1150.44	170
1148.56	171
1146.67	170.5
1144.79	164
1142.9	180
1141.01	177.5
1139.12	187
1137.24	194
1135.35	206.5
1133.46	228.5
1131.57	267.5
1129.68	268.5
1127.79	273.5
1125.9	277
1124.01	278
1122.12	279.5
1120.22	270.5
1118.33	277
1116.44	263
1114.54	258.5
1112.65	250
1110.75	246
1108.86	250
1106.96	254.5
1105.07	268
1103.17	287
1101.27	305.5
1099.38	319
1097.48	338.5
1095.58	366.5
1093.68	375
1091.78	385.5
1089.88	408
1087.98	417.5
1086.08	438
1084.18	442
1082.28	441.5
1080.38	435.5
1078.47	436
1076.57	437
1074.67	420
1072.76	413
1070.86	420.5
1068.95	424.5
1067.05	433
1065.14	447
1063.24	431.5
1061.33	398
1059.42	374
1057.51	353
1055.6	325
1053.7	315.5
1051.79	310
1049.88	284.5
1047.97	279
1046.06	282
1044.14	263
1042.23	269
1040.32	266.5
1038.41	269
1036.5	276
1034.58	279
1032.67	273.5
1030.75	264
1028.84	258
1026.92	266.5
1025.01	268
1023.09	266
1021.17	258.5
1019.26	252
1017.34	261.5
1015.42	249
1013.5	256.5
1011.58	257
1009.66	245
1007.74	244
1005.82	232.5
1003.9	241.5
1001.98	224
1000.06	216
998.134	207
996.212	221
994.288	230
992.364	229.5
990.44	224
988.515	227
986.589	236
984.663	249.5
982.737	252.5
980.81	250
978.883	266
976.955	278
975.027	278
973.098	281.5
971.169	284.5
969.239	283.5
967.308	297.5
965.378	286
963.447	284.5
961.516	281
959.583	280.5
957.65	280
955.718	281
953.784	278
951.85	286
949.916	283
947.981	290
946.045	299.5
944.109	305.5
942.173	309.5
940.236	315
938.298	310
936.36	317
934.422	306
932.484	299
930.544	304
928.604	296.5
926.664	293
924.724	289
922.782	304
920.84	301.5
918.898	303.5
916.955	301
915.012	302
913.068	294
911.124	293.5
909.18	297.5
907.235	298
905.289	299
903.343	294
901.397	312.5
899.45	322.5
897.502	343.5
895.554	340
893.605	369
891.657	366
889.707	369.5
887.758	379
885.807	361
883.856	370
881.905	367
879.953	365
878.001	390.5
876.048	382
874.094	387.5
872.14	396
870.186	391.5
868.232	375.5
866.276	380.5
864.321	359
862.365	359.5
860.408	356
858.451	358.5
856.493	363
854.535	350
852.576	367.5
850.617	366.5
848.658	361.5
846.698	352.5
844.737	355
842.776	339
840.814	331
838.852	318
836.89	322.5
834.927	311.5
832.963	314
830.999	304.5
829.035	283
827.07	279
825.105	272
823.139	254.5
821.172	250
819.206	248
817.238	242
815.27	239.5
813.301	230
811.333	227
809.363	220
807.394	219.5
805.424	215
803.453	202
801.482	187.5
799.509	185
797.538	173
795.565	172
793.592	166
791.618	164
789.643	174.5
787.669	165
785.693	162
783.718	175.5
781.742	170
779.765	167
777.788	157
775.811	162.5
773.832	169.5
771.853	167
769.875	167
767.895	165
765.915	160
763.934	160
761.953	169.5
759.972	171
757.99	162
756.007	150
754.024	161.5
752.041	156
750.056	158.5
748.072	149.5
746.087	163
744.102	161
742.116	155.5
740.13	172.5
738.143	168
736.155	167
734.167	164
732.179	164.5
730.19	177
728.2	167
726.21	173
724.22	164.5
722.229	160
720.237	164
718.246	158
716.253	159.5
714.26	163
712.267	144
710.273	149
708.279	151
706.284	132
704.289	138
702.293	140.5
700.296	130
698.3	135.5
696.303	132
694.305	125
692.307	131.5
690.307	126
688.308	128.5
686.309	132
684.308	142
682.308	123
680.306	125
678.304	132.5
676.302	125.5
674.3	138.5
672.296	133
670.293	133.5
668.289	135
666.284	137
664.278	145
662.273	134
660.266	130
658.26	130
656.252	136
654.244	133.5
652.237	144
650.227	139
648.218	147
646.209	146
644.198	146.5
642.188	151.5
640.177	145
638.165	148.5
636.153	144
634.14	140.5
632.128	148
630.113	146
628.099	155.5
626.085	158
624.07	158.5
622.054	169
620.038	171
618.021	167
616.004	157
613.986	177
611.968	167
609.949	176.5
607.93	180.5
605.911	190.5
603.891	180.5
601.87	180.5
599.848	181
597.827	177.5
595.805	164
593.782	167
591.759	158
589.735	166
587.711	159
585.687	165
583.661	161.5
581.636	166.5
579.609	153.5
577.583	166
575.555	156.5
573.527	154.5
571.5	143.5
569.471	149
567.441	144.5
565.412	148.5
563.382	146.5
561.351	158
559.32	152
557.289	157.5
555.257	161.5
553.223	172.5
551.19	178
549.157	175
547.122	178
545.088	178.5
543.053	195
541.017	205
538.981	218
536.943	249
534.907	288
532.869	366
530.831	471
528.792	663.5
526.752	983
524.713	1433.5
522.673	1784.5
520.632	1808
518.591	1482.5
516.549	1104.5
514.507	781.5
512.464	529
510.42	397.5
508.377	329
506.332	267.5
504.288	252
502.242	242
500.196	223
498.15	206.5
496.104	215.5
494.056	208
492.008	217.5
489.96	209.5
487.911	212.5
485.862	211.5
483.812	215
481.761	214
479.71	216.5
477.659	205
475.607	205
473.555	192
471.502	202.5
469.448	202.5
467.395	207
465.34	209
463.285	212.5
461.23	210.5
459.174	217.5
457.118	209.5
455.061	207
453.003	211
450.945	214
448.887	205
446.828	214
444.768	212.5
442.708	213.5
440.647	209.5
438.587	227.5
436.525	230.5
434.463	222
432.4	225.5
430.337	227.5
428.274	218.5
426.21	236.5
424.145	221.5
422.079	236
420.014	232.5
417.948	245
415.882	243
413.814	246
411.746	250
409.679	240
407.609	250
405.54	248.5
403.47	235
401.401	239
399.329	255
397.258	231.5
395.187	239.5
393.114	237
391.041	256
388.968	243.5
386.895	251.5
384.82	253.5
382.745	240
380.67	241
378.594	239.5
376.517	254
374.44	248.5
372.363	255
370.286	251.5
368.207	258
366.128	267
364.049	271.5
361.969	262
359.888	268
357.807	260.5
355.725	273.5
353.643	265
351.561	279
349.477	264.5
347.394	270.5
345.31	273
343.226	274.5
341.141	281
339.055	280.5
336.968	279
334.882	287
332.795	284.5
330.707	285.5
328.618	294.5
326.53	290.5
324.44	303.5
322.351	304.5
320.26	325.5
318.17	326
316.078	339.5
313.987	336.5
311.895	340
309.802	349
307.708	364
305.614	361.5
303.52	371.5
301.425	376
299.329	377.5
297.233	368.5
295.137	377.5
293.039	377.5
290.942	380
288.844	371.5
286.745	375.5
284.647	370.5
282.546	365
280.446	371
278.346	396.5
276.245	394.5
274.143	390
272.041	407.5
269.939	409.5
267.835	417
265.731	430
263.627	420.5
261.522	431.5
259.417	410
257.311	439.5
255.204	443
253.098	453
250.99	456
248.882	462
246.774	485.5
244.664	493.5
242.555	481
240.445	501
238.334	483
236.223	503
234.112	506.5
232	522
229.888	500
227.775	526
225.661	542.5
223.546	556.5
221.431	553
219.316	552
217.201	546.5
215.084	561.5
212.967	560.5
210.85	561
208.732	562
206.614	569.5
204.495	567
202.375	567
200.256	569.5
198.135	557
196.014	569
193.893	577.5
191.771	575
189.648	573.5
187.525	569
185.401	553
183.277	563
181.152	558
179.027	552.5
176.901	567.5
174.775	569.5
172.648	596
170.521	596.5
168.393	596.5
166.265	598.5
164.136	621
162.007	612
159.876	626.5
157.746	650.5
155.615	650
153.483	673.5
151.351	667
149.219	713
147.086	716
144.952	736
142.818	754
140.684	771
138.548	804.5
136.413	818
134.276	849
132.139	867
130.002	898
127.864	947
125.725	964.5
123.587	1019.5
121.447	1042
119.307	1096.5
117.166	1139.5
115.026	1174.5
112.885	1198
110.743	1250
108.6	1284.5
106.456	1286
104.313	1327
102.169	1325.5
100.023	1274.5
97.8789	1218
95.7328	1090.5
93.5869	972
91.4392	813.5
89.2919	665
87.1447	509.5
84.9959	404
