3528.51	128
3527.23	135.5
3525.95	151.5
3524.67	150
3523.39	144
3522.1	144
3520.82	151
3519.54	144
3518.26	134.5
3516.97	143
3515.69	143.5
3514.4	141
3513.12	147.5
3511.84	149
3510.55	149
3509.26	153
3507.98	159.5
3506.69	152.5
3505.41	150.5
3504.12	145.5
3502.83	150.5
3501.54	154
3500.26	170
3498.97	161
3497.68	169.5
3496.39	168.5
3495.1	169.5
3493.81	166.5
3492.52	180.5
3491.23	168
3489.94	175
3488.65	178
3487.36	168.5
3486.07	176.5
3484.78	194.5
3483.49	194.5
3482.19	199
3480.9	203
3479.61	196.5
3478.31	208.5
3477.02	201.5
3475.73	206.5
3474.43	191
3473.14	201
3471.84	204
3470.54	206.5
3469.25	209
3467.95	211
3466.66	198.5
3465.36	220.5
3464.06	218
3462.76	213.5
3461.46	208.5
3460.17	210.5
3458.87	223.5
3457.57	205
3456.27	218.5
3454.97	220.5
3453.67	223.5
3452.37	238.5
3451.07	237
3449.77	234
3448.47	245
3447.16	231.5
3445.86	242.5
3444.56	243
3443.26	246
3441.95	235.5
3440.65	262.5
3439.35	260.5
3438.04	265.5
3436.74	269.5
3435.43	274
3434.13	282.5
3432.82	276
3431.52	276.5
3430.21	277
3428.9	292.5
3427.6	287
3426.29	303.5
3424.98	310
3423.67	316.5
3422.36	312.5
3421.06	315
3419.75	325.5
3418.44	323.5
3417.13	334
3415.82	330
3414.51	336
3413.2	329.5
3411.88	326
3410.57	358
3409.26	353.5
3407.95	350.5
3406.64	354.5
3405.32	352.5
3404.01	368.5
3402.7	365
3401.38	360.5
3400.07	366
3398.75	365
3397.44	364
3396.12	380
3394.81	384
3393.49	375
3392.18	393.5
3390.86	389
3389.54	388.5
3388.23	391.5
3386.91	396.5
3385.59	404.5
3384.27	396
3382.95	408.5
3381.63	389
3380.31	419
3378.99	421
3377.67	429.5
3376.35	417.5
3375.03	436.5
3373.71	436
3372.39	435
3371.07	427.5
3369.75	434.5
3368.42	432
3367.1	445
3365.78	442.5
3364.45	442.5
3363.13	464
3361.81	460
3360.48	465.5
3359.16	471.5
3357.83	469
3356.51	455
3355.18	479.5
3353.85	467
3352.53	475.5
3351.2	478.5
3349.87	481.5
3348.54	486
3347.22	466
3345.89	489
3344.56	496.5
3343.23	492.5
3341.9	481
3340.57	487.5
3339.24	485.5
3337.91	487
3336.58	495
3335.25	496
3333.92	502.5
3332.58	505
3331.25	517
3329.92	514.5
3328.59	504
3327.25	514
3325.92	519.5
3324.58	522
3323.25	523
3321.92	517
3320.58	519.5
3319.25	524
3317.91	540
3316.57	543.5
3315.24	543.5
3313.9	554.5
3312.56	555.5
3311.23	549
3309.89	548
3308.55	559.5
3307.21	549.5
3305.87	565
3304.53	563.5
3303.19	552.5
3301.85	566
3300.51	577.5
3299.17	574.5
3297.83	568.5
3296.49	582
3295.15	572
3293.81	574
3292.46	562
3291.12	574
3289.78	578
3288.43	577.5
3287.09	592
3285.75	592
3284.4	595.5
3283.06	587.5
3281.71	594
3280.37	614.5
3279.02	588.5
3277.67	604.5
3276.33	609
3274.98	610
3273.63	622.5
3272.28	627.5
3270.94	641.5
3269.59	647.5
3268.24	646
3266.89	656
3265.54	660
3264.19	665
3262.84	677.5
3261.49	689
3260.14	693.5
3258.79	710
3257.44	732
3256.08	733.5
3254.73	739.5
3253.38	768
3252.03	783
3250.67	813
3249.32	810
3247.96	843.5
3246.61	848.5
3245.26	888.5
3243.9	909.5
3242.54	918.5
3241.19	949.5
3239.83	975.5
3238.48	999.5
3237.12	1022
3235.76	1038.5
3234.41	1066.5
3233.05	1100.5
3231.69	1114
3230.33	1144
3228.97	1165
3227.61	1176
3226.25	1200.5
3224.89	1204.5
3223.53	1234
3222.17	1244
3220.81	1252
3219.45	1278
3218.09	1296.5
3216.72	1306.5
3215.36	1316.5
3214	1321.5
3212.63	1327.5
3211.27	1332.5
3209.91	1371
3208.54	1373.5
3207.18	1363.5
3205.81	1377
3204.45	1385.5
3203.08	1387
3201.71	1405
3200.35	1384
3198.98	1414
3197.61	1416.5
3196.25	1428.5
3194.88	1422.5
3193.51	1450.5
3192.14	1458
3190.77	1449
3189.4	1470.5
3188.03	1490
3186.66	1457.5
3185.29	1490
3183.92	1487
3182.55	1483.5
3181.18	1502.5
3179.81	1509.5
3178.44	1543
3177.06	1542
3175.69	1564
3174.32	1577
3172.94	1567
3171.57	1568
3170.2	1595
3168.82	1603
3167.45	1583.5
3166.07	1614
3164.69	1650.5
3163.32	1639
3161.94	1650
3160.56	1678
3159.19	1682.5
3157.81	1718.5
3156.43	1727
3155.05	1730.5
3153.67	1738
3152.3	1747
3150.92	1766.5
3149.54	1769
3148.16	1791.5
3146.78	1827.5
3145.4	1803.5
3144.01	1850.5
3142.63	1850.5
3141.25	1852.5
3139.87	1867
3138.49	1887.5
3137.1	1874
3135.72	1896
3134.34	1915.5
3132.95	1909.5
3131.57	1932.5
3130.18	1947.5
3128.8	1958
3127.41	1977
3126.03	1982.5
3124.64	1998.5
3123.25	1998.5
3121.87	2025
3120.48	2020
3119.09	2042.5
3117.7	2048.5
3116.32	2058
3114.93	2044
3113.54	2098
3112.15	2101
3110.76	2089
3109.37	2100
3107.98	2118.5
3106.59	2112
3105.2	2121
3103.8	2138
3102.41	2134
3101.02	2147
3099.63	2130.5
3098.23	2158
3096.84	2188
3095.45	2208
3094.05	2192.5
3092.66	2206.5
3091.26	2207.5
3089.87	2216
3088.47	2211.5
3087.08	2223
3085.68	2224
3084.28	2230.5
3082.89	2239
3081.49	2259.5
3080.09	2241
3078.69	2261
3077.3	2265.5
3075.9	2255.5
3074.5	2273.5
3073.1	2293.5
3071.7	2286
3070.3	2296
3068.9	2324.5
3067.5	2331.5
3066.09	2321.5
3064.69	2322.5
3063.29	2321
3061.89	2316
3060.48	2331
3059.08	2343
3057.68	2344
3056.27	2344.5
3054.87	2385.5
3053.46	2385
3052.06	2381.5
3050.65	2414.5
3049.25	2394
3047.84	2432
3046.44	2404.5
3045.03	2416
3043.62	2453.5
3042.21	2435.5
3040.81	2464
3039.4	2439.5
3037.99	2448.5
3036.58	2451.5
3035.17	2459.5
3033.76	2484.5
3032.35	2479
3030.94	2499
3029.53	2519
3028.12	2505
3026.71	2519
3025.29	2516.5
3023.88	2560
3022.47	2518.5
3021.06	2512
3019.64	2540
3018.23	2537.5
3016.82	2576.5
3015.4	2573
3013.99	2555.5
3012.57	2564.5
3011.15	2570
3009.74	2584
3008.32	2571.5
3006.91	2585
3005.49	2608.5
3004.07	2580.5
3002.65	2584.5
3001.24	2628.5
2999.82	2641
2998.4	2663.5
2996.98	2677
2995.56	2663
2994.14	2683.5
2992.72	2715
2991.3	2708
2989.88	2696.5
2988.46	2720
2987.03	2753.5
2985.61	2761.5
2984.19	2788.5
2982.77	2794
2981.34	2801
2979.92	2809.5
2978.49	2836
2977.07	2860
2975.65	2866
2974.22	2880
2972.79	2869.5
2971.37	2883
2969.94	2915.5
2968.52	2933.5
2967.09	2984
2965.66	2940
2964.23	2988.5
2962.81	2969.5
2961.38	3001.5
2959.95	2986
2958.52	3005
2957.09	2994.5
2955.66	3039.5
2954.23	3048.5
2952.8	3017
2951.37	3040.5
2949.94	3075
2948.5	3050.5
2947.07	3067
2945.64	3083.5
2944.21	3093.5
2942.77	3071.5
2941.34	3109
2939.91	3128.5
2938.47	3125
2937.04	3144
2935.6	3185
2934.17	3179.5
2932.73	3187
2931.29	3211
2929.86	3183.5
2928.42	3243.5
2926.98	3226.5
2925.55	3238
2924.11	3230
2922.67	3230
2921.23	3246.5
2919.79	3244.5
2918.35	3254.5
2916.91	3265.5
2915.47	3306.5
2914.03	3289.5
2912.59	3301
2911.15	3333.5
2909.71	3296.5
2908.26	3302.5
2906.82	3346.5
2905.38	3319
2903.94	3332.5
2902.49	3381
2901.05	3383
2899.6	3364.5
2898.16	3381
2896.71	3407
2895.27	3366.5
2893.82	3377
2892.38	3397.5
2890.93	3379.5
2889.48	3412.5
2888.03	3433.5
2886.59	3403.5
2885.14	3391
2883.69	3428.5
2882.24	3418.5
2880.79	3414.5
2879.34	3403.5
2877.89	3405
2876.44	3421
2874.99	3412
2873.54	3420.5
2872.09	3411.5
2870.64	3412
2869.18	3430.5
2867.73	3434
2866.28	3441.5
2864.83	3438
2863.37	3471.5
2861.92	3475.5
2860.46	3463
2859.01	3436.5
2857.55	3480
2856.1	3462
2854.64	3472
2853.19	3458
2851.73	3459.5
2850.27	3434.5
2848.81	3464
2847.36	3474
2845.9	3451.5
2844.44	3398
2842.98	3422
2841.52	3397
2840.06	3367
2838.6	3370.5
2837.14	3333
2835.68	3344.5
2834.22	3341.5
2832.76	3314.5
2831.3	3306.5
2829.83	3278.5
2828.37	3292
2826.91	3291.5
2825.44	3294
2823.98	3257
2822.52	3256.5
2821.05	3236.5
2819.59	3228.5
2818.12	3205
2816.66	3229
2815.19	3209.5
2813.72	3218.5
2812.26	3200
2810.79	3209.5
2809.32	3184.5
2807.85	3197
2806.38	3196.5
2804.92	3178
2803.45	3166
2801.98	3152
2800.51	3191
2799.04	3185
2797.57	3175.5
2796.1	3171
2794.62	3150.5
2793.15	3142
2791.68	3153
2790.21	3144
2788.73	3177.5
2787.26	3146.5
2785.79	3173.5
2784.31	3152
2782.84	3161.5
2781.36	3148.5
2779.89	3172
2778.41	3182
2776.94	3183
2775.46	3164.5
2773.99	3167.5
2772.51	3179.5
2771.03	3182.5
2769.55	3217.5
2768.07	3189
2766.6	3191.5
2765.12	3228
2763.64	3209.5
2762.16	3157
2760.68	3175
2759.2	3168
2757.72	3151
2756.24	3158
2754.75	3162
2753.27	3185.5
2751.79	3193
2750.31	3166
2748.82	3187
2747.34	3170.5
2745.86	3184.5
2744.37	3165.5
2742.89	3139.5
2741.4	3142
2739.92	3179
2738.43	3159.5
2736.94	3150
2735.46	3163
2733.97	3139.5
2732.48	3147.5
2731	3160
2729.51	3173.5
2728.02	3152
2726.53	3151.5
2725.04	3135
2723.55	3148
2722.06	3166.5
2720.57	3144.5
2719.08	3131
2717.59	3158
2716.1	3130.5
2714.61	3170.5
2713.11	3142
2711.62	3115
2710.13	3101
2708.64	3120.5
2707.14	3099.5
2705.65	3118.5
2704.15	3128.5
2702.66	3086
2701.16	3070.5
2699.67	3077.5
2698.17	3119.5
2696.67	3077
2695.18	3090
2693.68	3081.5
2692.18	3069
2690.69	3089
2689.19	3072
2687.69	3072
2686.19	3047
2684.69	3052.5
2683.19	3041
2681.69	3031.5
2680.19	3033.5
2678.69	3034
2677.19	3002.5
2675.68	3007
2674.18	3022
2672.68	3008.5
2671.18	2987.5
2669.67	2991.5
2668.17	3010
2666.66	3030.5
2665.16	2996
2663.66	3001
2662.15	3000.5
2660.64	2968
2659.14	2973.5
2657.63	2976
2656.13	2937
2654.62	2946.5
2653.11	2974.5
2651.6	2956.5
2650.09	2977
2648.58	2955
2647.08	2969
2645.57	2948.5
2644.06	2940
2642.55	2905.5
2641.04	2904
2639.52	2920.5
2638.01	2903
2636.5	2862.5
2634.99	2864
2633.48	2879.5
2631.96	2866
2630.45	2873
2628.94	2860
2627.42	2862
2625.91	2874.5
2624.39	2872
2622.88	2864.5
2621.36	2837
2619.85	2842.5
2618.33	2864
2616.81	2812
2615.3	2837
2613.78	2843.5
2612.26	2817.5
2610.74	2814.5
2609.22	2821
2607.7	2800
2606.18	2795
2604.66	2754.5
2603.14	2761
2601.62	2755
2600.1	2758
2598.58	2752.5
2597.06	2743
2595.54	2735
2594.01	2733
2592.49	2720.5
2590.97	2733.5
2589.44	2730.5
2587.92	2731.5
2586.39	2731
2584.87	2694.5
2583.34	2704
2581.82	2717.5
2580.29	2705
2578.76	2710
2577.24	2707
2575.71	2720.5
2574.18	2685.5
2572.65	2707.5
2571.13	2699.5
2569.6	2684.5
2568.07	2695
2566.54	2689.5
2565.01	2669.5
2563.48	2664.5
2561.95	2672
2560.42	2677
2558.88	2657
2557.35	2657
2555.82	2648.5
2554.29	2644
2552.75	2604.5
2551.22	2590
2549.69	2611
2548.15	2594
2546.62	2585.5
2545.08	2627.5
2543.55	2592.5
2542.01	2576
2540.47	2586.5
2538.94	2581.5
2537.4	2559
2535.86	2550
2534.33	2573.5
2532.79	2503
2531.25	2532.5
2529.71	2502
2528.17	2512.5
2526.63	2515
2525.09	2491.5
2523.55	2492.5
2522.01	2491.5
2520.47	2473.5
2518.92	2474
2517.38	2472
2515.84	2461
2514.3	2444
2512.75	2434
2511.21	2396
2509.67	2436.5
2508.12	2418
2506.58	2402.5
2505.03	2425.5
2503.49	2390
2501.94	2393
2500.39	2384.5
2498.85	2382.5
2497.3	2359.5
2495.75	2349.5
2494.2	2355
2492.65	2331
2491.11	2337.5
2489.56	2325.5
2488.01	2329
2486.46	2338.5
2484.91	2310.5
2483.36	2307
2481.8	2321
2480.25	2289.5
2478.7	2275
2477.15	2275.5
2475.6	2258.5
2474.04	2261
2472.49	2259.5
2470.93	2222.5
2469.38	2229
2467.83	2221
2466.27	2221.5
2464.71	2222
2463.16	2194
2461.6	2189.5
2460.05	2174.5
2458.49	2155
2456.93	2186
2455.37	2156.5
2453.81	2161
2452.26	2147.5
2450.7	2129
2449.14	2113.5
2447.58	2109.5
2446.02	2087
2444.46	2100
2442.9	2081
2441.33	2091.5
2439.77	2075.5
2438.21	2086
2436.65	2092
2435.08	2064
2433.52	2059.5
2431.96	2047
2430.39	2084.5
2428.83	2053.5
2427.26	2041
2425.7	2030
2424.13	2045
2422.56	2024.5
2421	2023
2419.43	2030
2417.86	2008
2416.3	2036
2414.73	2014.5
2413.16	2023
2411.59	2022.5
2410.02	1990.5
2408.45	1980.5
2406.88	1981
2405.31	2036.5
2403.74	2000.5
2402.17	1993.5
2400.6	1968.5
2399.02	1993
2397.45	1986.5
2395.88	1965.5
2394.3	1952.5
2392.73	1970.5
2391.16	1961
2389.58	1932
2388.01	1960.5
2386.43	1938.5
2384.86	1946
2383.28	1957.5
2381.7	1947
2380.13	1949.5
2378.55	1964
2376.97	1943
2375.39	1913.5
2373.81	1937.5
2372.23	1928.5
2370.65	1922
2369.07	1915.5
2367.49	1886.5
2365.91	1900
2364.33	1882.5
2362.75	1885.5
2361.17	1883.5
2359.59	1884.5
2358.01	1868.5
2356.42	1851
2354.84	1874
2353.25	1845.5
2351.67	1842
2350.09	1860.5
2348.5	1848
2346.92	1855.5
2345.33	1840.5
2343.74	1845.5
2342.16	1845.5
2340.57	1838.5
2338.98	1819.5
2337.39	1801
2335.81	1821.5
2334.22	1809.5
2332.63	1792
2331.04	1802
2329.45	1796.5
2327.86	1815
2326.27	1817.5
2324.68	1795
2323.09	1797.5
2321.49	1762.5
2319.9	1776
2318.31	1779
2316.72	1763.5
2315.12	1747
2313.53	1742.5
2311.93	1731
2310.34	1719.5
2308.74	1734.5
2307.15	1723
2305.55	1725.5
2303.96	1686
2302.36	1689
2300.76	1687.5
2299.17	1674.5
2297.57	1669
2295.97	1685
2294.37	1651.5
2292.77	1665.5
2291.17	1662
2289.57	1654
2287.97	1658
2286.37	1662
2284.77	1630
2283.17	1648
2281.57	1644.5
2279.96	1635.5
2278.36	1641
2276.76	1619
2275.15	1613
2273.55	1633
2271.95	1606.5
2270.34	1619.5
2268.74	1601
2267.13	1587.5
2265.52	1586
2263.92	1566
2262.31	1572
2260.7	1567.5
2259.1	1571.5
2257.49	1562.5
2255.88	1556
2254.27	1566
2252.66	1555
2251.05	1535.5
2249.44	1555
2247.83	1541.5
2246.22	1558
2244.61	1545
2243	1542.5
2241.39	1530
2239.77	1525.5
2238.16	1516
2236.55	1531.5
2234.93	1511.5
2233.32	1511.5
2231.7	1505
2230.09	1498.5
2228.47	1475.5
2226.86	1474.5
2225.24	1441.5
2223.63	1469.5
2222.01	1466.5
2220.39	1443.5
2218.77	1452.5
2217.16	1454.5
2215.54	1424
2213.92	1448.5
2212.3	1429
2210.68	1432
2209.06	1441
2207.44	1427
2205.82	1406.5
2204.19	1406.5
2202.57	1397.5
2200.95	1380
2199.33	1383
2197.7	1385.5
2196.08	1391
2194.46	1381.5
2192.83	1394.5
2191.21	1382
2189.58	1371
2187.96	1378
2186.33	1381
2184.7	1347
2183.08	1370
2181.45	1342
2179.82	1339.5
2178.19	1343
2176.57	1346
2174.94	1333.5
2173.31	1337.5
2171.68	1326
2170.05	1294
2168.42	1312
2166.79	1289
2165.16	1296.5
2163.52	1293.5
2161.89	1297.5
2160.26	1295.5
2158.63	1290
2156.99	1301
2155.36	1280
2153.73	1270
2152.09	1267.5
2150.46	1257.5
2148.82	1254.5
2147.18	1239.5
2145.55	1226
2143.91	1231
2142.27	1249.5
2140.64	1225.5
2139	1236
2137.36	1226
2135.72	1200.5
2134.08	1196
2132.44	1195
2130.8	1189.5
2129.16	1174.5
2127.52	1180
2125.88	1177
2124.24	1167.5
2122.6	1138
2120.95	1159.5
2119.31	1162
2117.67	1151
2116.02	1149.5
2114.38	1133.5
2112.74	1120.5
2111.09	1130.5
2109.45	1136
2107.8	1114.5
2106.15	1109.5
2104.51	1126
2102.86	1098
2101.21	1099
2099.56	1112.5
2097.92	1108
2096.27	1097
2094.62	1082
2092.97	1076.5
2091.32	1092.5
2089.67	1084.5
2088.02	1081
2086.37	1074.5
2084.72	1087.5
2083.06	1085.5
2081.41	1065.5
2079.76	1090.5
2078.1	1059.5
2076.45	1049.5
2074.8	1068
2073.14	1053.5
2071.49	1049.5
2069.83	1055.5
2068.18	1058.5
2066.52	1051
2064.86	1035.5
2063.21	1049
2061.55	1041.5
2059.89	1031.5
2058.23	1036.5
2056.57	1023.5
2054.92	1024
2053.26	1018
2051.6	1011.5
2049.94	1021
2048.27	1014
2046.61	998.5
2044.95	1016
2043.29	1005.5
2041.63	997.5
2039.97	986.5
2038.3	979
2036.64	977.5
2034.97	972
2033.31	959
2031.64	955
2029.98	957
2028.31	959.5
2026.65	940.5
2024.98	949.5
2023.31	943
2021.65	940
2019.98	944
2018.31	910.5
2016.64	922
2014.97	919.5
2013.3	921.5
2011.63	910
2009.96	912
2008.29	910
2006.62	913
2004.95	928.5
2003.28	894
2001.6	905
1999.93	892.5
1998.26	885
1996.58	887
1994.91	893
1993.24	879
1991.56	866.5
1989.89	889
1988.21	879.5
1986.53	881.5
1984.86	889.5
1983.18	892
1981.5	871.5
1979.82	859
1978.15	851
1976.47	853
1974.79	849.5
1973.11	854.5
1971.43	840
1969.75	820.5
1968.07	850.5
1966.38	837.5
1964.7	825
1963.02	834
1961.34	834.5
1959.66	810.5
1957.97	807.5
1956.29	805
1954.6	798.5
1952.92	794.5
1951.23	803.5
1949.55	806
1947.86	798.5
1946.18	790.5
1944.49	798.5
1942.8	793.5
1941.11	774.5
1939.43	783.5
1937.74	772.5
1936.05	770
1934.36	772.5
1932.67	759.5
1930.98	759.5
1929.29	746.5
1927.6	759
1925.91	747.5
1924.21	745
1922.52	739.5
1920.83	729.5
1919.14	725
1917.44	717.5
1915.75	734
1914.05	718.5
1912.36	730
1910.66	728
1908.97	721.5
1907.27	721.5
1905.58	720
1903.88	705
1902.18	705.5
1900.48	694
1898.79	683
1897.09	685
1895.39	702.5
1893.69	679
1891.99	675
1890.29	672.5
1888.59	682
1886.89	657.5
1885.18	658
1883.48	669.5
1881.78	650.5
1880.08	649
1878.37	659
1876.67	646
1874.96	637
1873.26	643
1871.55	634
1869.85	649.5
1868.14	639
1866.44	623.5
1864.73	625
1863.02	638
1861.32	607.5
1859.61	623
1857.9	619
1856.19	627
1854.48	612.5
1852.77	610.5
1851.06	629.5
1849.35	609.5
1847.64	611
1845.93	600
1844.21	598
1842.5	592
1840.79	602
1839.08	599.5
1837.36	586.5
1835.65	586
1833.93	591.5
1832.22	592.5
1830.5	583
1828.79	588.5
1827.07	588
1825.36	571.5
1823.64	565.5
1821.92	567.5
1820.2	558.5
1818.48	551
1816.77	556
1815.05	567
1813.33	567
1811.61	563
1809.89	553
1808.16	546.5
1806.44	543.5
1804.72	538
1803	545
1801.28	527.5
1799.55	520
1797.83	547.5
1796.11	542
1794.38	535.5
1792.66	530.5
1790.93	533.5
1789.21	534.5
1787.48	521
1785.75	509.5
1784.03	512
1782.3	506
1780.57	510.5
1778.84	503.5
1777.11	506
1775.38	526.5
1773.66	516
1771.93	530.5
1770.19	511.5
1768.46	505
1766.73	503.5
1765	520
1763.27	515
1761.54	532
1759.8	531.5
1758.07	533
1756.34	552.5
1754.6	557
1752.87	553.5
1751.13	567.5
1749.4	571
1747.66	569.5
1745.92	557
1744.19	551.5
1742.45	544
1740.71	540.5
1738.97	540
1737.23	523
1735.49	516.5
1733.75	514.5
1732.01	499
1730.27	499.5
1728.53	488
1726.79	489
1725.05	473.5
1723.31	474
1721.57	466.5
1719.82	464
1718.08	459.5
1716.34	462
1714.59	461
1712.85	465
1711.1	477
1709.36	446.5
1707.61	450
1705.86	451
1704.12	444
1702.37	433
1700.62	450
1698.87	442
1697.12	444.5
1695.37	429.5
1693.62	448.5
1691.87	441.5
1690.12	444
1688.37	442
1686.62	444
1684.87	430.5
1683.12	429
1681.36	438.5
1679.61	439
1677.86	435.5
1676.1	436
1674.35	460
1672.59	479
1670.84	488
1669.08	514
1667.33	551
1665.57	577.5
1663.81	619
1662.06	689.5
1660.3	697.5
1658.54	723
1656.78	725.5
1655.02	692
1653.26	669.5
1651.5	618.5
1649.74	581
1647.98	546
1646.22	514.5
1644.46	484.5
1642.7	460
1640.93	438
1639.17	426.5
1637.41	420.5
1635.64	411.5
1633.88	408.5
1632.11	403
1630.35	405.5
1628.58	390
1626.81	389.5
1625.05	392.5
1623.28	383.5
1621.51	383
1619.75	374
1617.98	373.5
1616.21	370
1614.44	370.5
1612.67	386
1610.9	378
1609.13	362
1607.36	366.5
1605.58	358.5
1603.81	353
1602.04	363
1600.27	361
1598.49	355
1596.72	350
1594.95	352.5
1593.17	364
1591.4	357
1589.62	362
1587.84	358
1586.07	345
1584.29	355.5
1582.51	345.5
1580.74	344
1578.96	339
1577.18	358
1575.4	342
1573.62	350.5
1571.84	340.5
1570.06	351.5
1568.28	337.5
1566.5	332
1564.72	341.5
1562.93	329
1561.15	341.5
1559.37	332.5
1557.58	329.5
1555.8	333
1554.02	338
1552.23	332.5
1550.45	330.5
1548.66	339.5
1546.87	335
1545.09	327
1543.3	310.5
1541.51	322
1539.72	314
1537.94	324
1536.15	322.5
1534.36	310
1532.57	319.5
1530.78	319.5
1528.99	311
1527.2	326
1525.4	325.5
1523.61	319.5
1521.82	311.5
1520.03	317.5
1518.23	314.5
1516.44	302
1514.65	317.5
1512.85	322
1511.06	315.5
1509.26	319
1507.46	338.5
1505.67	329
1503.87	324
1502.07	326.5
1500.28	325
1498.48	325.5
1496.68	325.5
1494.88	333.5
1493.08	341
1491.28	348
1489.48	356.5
1487.68	363
1485.88	363.5
1484.08	370
1482.27	387
1480.47	399.5
1478.67	415
1476.86	436.5
1475.06	452.5
1473.25	493.5
1471.45	513
1469.64	553.5
1467.84	596
1466.03	629.5
1464.23	662
1462.42	707.5
1460.61	731
1458.8	760.5
1456.99	773.5
1455.18	808
1453.37	833.5
1451.56	855.5
1449.75	872.5
1447.94	920
1446.13	967
1444.32	986.5
1442.51	1009
1440.7	990.5
1438.88	965
1437.07	883.5
1435.26	806
1433.44	717
1431.63	648
1429.81	581
1427.99	523.5
1426.18	495
1424.36	452.5
1422.54	448
1420.73	433
1418.91	401.5
1417.09	388
1415.27	376
1413.45	350
1411.63	342
1409.81	339
1407.99	324.5
1406.17	337
1404.35	328
1402.53	325
1400.7	309
1398.88	308.5
1397.06	302
1395.23	284.5
1393.41	295.5
1391.58	282
1389.76	283.5
1387.93	296.5
1386.11	299.5
1384.28	301
1382.45	294.5
1380.62	300.5
1378.8	299.5
1376.97	294
1375.14	293.5
1373.31	311.5
1371.48	310.5
1369.65	308
1367.82	307
1365.99	308.5
1364.16	306.5
1362.32	313.5
1360.49	316
1358.66	298.5
1356.82	294.5
1354.99	293.5
1353.16	309.5
1351.32	301.5
1349.48	297
1347.65	309.5
1345.81	312.5
1343.98	308
1342.14	318.5
1340.3	322
1338.46	320.5
1336.62	327.5
1334.79	326
1332.95	338.5
1331.11	354
1329.27	359.5
1327.42	385
1325.58	407.5
1323.74	434
1321.9	445
1320.06	465.5
1318.21	482
1316.37	520
1314.53	546.5
1312.68	580.5
1310.84	612
1308.99	656.5
1307.15	687.5
1305.3	725.5
1303.45	749.5
1301.61	735
1299.76	730
1297.91	696
1296.06	646.5
1294.21	601
1292.36	553
1290.51	528
1288.66	503
1286.81	487.5
1284.96	470
1283.11	488.5
1281.26	495.5
1279.4	492.5
1277.55	501.5
1275.7	515.5
1273.84	512
1271.99	533.5
1270.13	513
1268.28	531
1266.42	522
1264.56	518
1262.71	516
1260.85	507
1258.99	505
1257.13	478.5
1255.27	455.5
1253.41	437.5
1251.56	402.5
1249.7	375
1247.83	375
1245.97	354.5
1244.11	341
1242.25	336
1240.39	324
1238.52	319.5
1236.66	311
1234.8	311
1232.93	301.5
1231.07	293
1229.2	278
1227.34	285.5
1225.47	278.5
1223.6	264
1221.74	265.5
1219.87	264.5
1218	270.5
1216.13	266.5
1214.26	264
1212.39	264
1210.53	251.5
1208.65	257
1206.78	245
1204.91	246.5
1203.04	249
1201.17	243
1199.3	240
1197.42	241.5
1195.55	240.5
1193.68	253.5
1191.8	244
1189.93	249.5
1188.05	239.5
1186.17	255
1184.3	240.5
1182.42	245
1180.54	241.5
1178.67	236
1176.79	247.5
1174.91	241
1173.03	244
1171.15	242
1169.27	244.5
1167.39	249.5
1165.51	239.5
1163.63	242
1161.75	238
1159.86	242
1157.98	242
1156.1	243
1154.21	247
1152.33	253
1150.44	249.5
1148.56	257
1146.67	256
1144.79	264.5
1142.9	259
1141.01	257
1139.12	260
1137.24	284
1135.35	284.5
1133.46	307
1131.57	335
1129.68	349
1127.79	354.5
1125.9	365
1124.01	372.5
1122.12	348
1120.22	352.5
1118.33	347.5
1116.44	351.5
1114.54	348.5
1112.65	342
1110.75	342
1108.86	348
1106.96	364
1105.07	380
1103.17	379.5
1101.27	404
1099.38	403
1097.48	435.5
1095.58	457.5
1093.68	465.5
1091.78	483.5
1089.88	524.5
1087.98	522.5
1086.08	534.5
1084.18	535.5
1082.28	552.5
1080.38	553.5
1078.47	552.5
1076.57	523
1074.67	507.5
1072.76	498.5
1070.86	506
1068.95	519.5
1067.05	524
1065.14	539.5
1063.24	518
1061.33	482.5
1059.42	457.5
1057.51	426.5
1055.6	409
1053.7	387
1051.79	377
1049.88	375
1047.97	374
1046.06	369.5
1044.14	368.5
1042.23	371.5
1040.32	372.5
1038.41	361.5
1036.5	354
1034.58	364
1032.67	341.5
1030.75	334
1028.84	349.5
1026.92	344.5
1025.01	350.5
1023.09	356.5
1021.17	347.5
1019.26	346.5
1017.34	338
1015.42	340
1013.5	327.5
1011.58	324.5
1009.66	322
1007.74	300
1005.82	312
1003.9	307.5
1001.98	309.5
1000.06	313.5
998.134	301
996.212	314
994.288	317.5
992.364	323.5
990.44	335.5
988.515	325
986.589	337
984.663	346.5
982.737	361
980.81	394
978.883	399.5
976.955	405
975.027	422.5
973.098	444
971.169	444.5
969.239	429.5
967.308	423.5
965.378	406
963.447	404.5
961.516	406
959.583	412.5
957.65	413
955.718	404.5
953.784	406.5
951.85	421
949.916	419
947.981	434
946.045	415
944.109	428
942.173	433
940.236	432
938.298	427
936.36	423
934.422	422.5
932.484	419.5
930.544	397.5
928.604	389.5
926.664	388
924.724	386.5
922.782	382.5
920.84	383.5
918.898	387
916.955	394
915.012	385.5
913.068	403.5
911.124	390
909.18	411.5
907.235	411.5
905.289	422
903.343	403
901.397	411
899.45	420
897.502	432
895.554	456.5
893.605	446
891.657	463
889.707	481
887.758	475.5
885.807	462.5
883.856	453.5
881.905	462.5
879.953	489
878.001	487
876.048	474.5
874.094	490
872.14	496.5
870.186	503
868.232	490.5
866.276	474
864.321	481
862.365	473.5
860.408	459.5
858.451	457
856.493	459.5
854.535	466
852.576	467.5
850.617	462.5
848.658	463.5
846.698	461
844.737	468
842.776	448
840.814	449
838.852	442.5
836.89	433.5
834.927	407.5
832.963	394
830.999	387
829.035	371
827.07	352
825.105	345
823.139	336
821.172	326
819.206	323.5
817.238	314
815.27	304
813.301	286.5
811.333	284.5
809.363	279
807.394	269
805.424	261.5
803.453	259
801.482	261.5
799.509	252
797.538	246
795.565	235
793.592	224.5
791.618	225
789.643	228
787.669	222.5
785.693	220
783.718	216.5
781.742	221
779.765	220.5
777.788	227
775.811	225.5
773.832	232
771.853	226.5
769.875	233
767.895	228
765.915	226.5
763.934	213
761.953	227.5
759.972	223
757.99	215.5
756.007	215
754.024	210.5
752.041	223
750.056	220.5
748.072	223
746.087	222.5
744.102	215
742.116	223
740.13	228.5
738.143	225.5
736.155	237
734.167	239.5
732.179	237.5
730.19	237.5
728.2	246
726.21	242.5
724.22	237.5
722.229	246.5
720.237	238.5
718.246	234
716.253	227
714.26	216
712.267	217.5
710.273	213
708.279	209.5
706.284	208
704.289	208
702.293	205.5
700.296	196.5
698.3	207.5
696.303	200.5
694.305	201.5
692.307	209.5
690.307	193.5
688.308	202
686.309	200
684.308	191
682.308	192.5
680.306	196.5
678.304	192
676.302	201.5
674.3	203.5
672.296	195
670.293	191.5
668.289	186
666.284	203
664.278	205
662.273	194.5
660.266	203
658.26	195
656.252	216
654.244	193.5
652.237	207.5
650.227	208.5
648.218	193.5
646.209	199
644.198	198
642.188	210.5
640.177	203
638.165	212.5
636.153	207
634.14	210
632.128	218
630.113	230.5
628.099	221
626.085	227
624.07	216.5
622.054	225.5
620.038	229
618.021	229.5
616.004	230
613.986	239
611.968	249.5
609.949	244.5
607.93	249.5
605.911	254
603.891	239
601.87	248
599.848	238.5
597.827	242
595.805	241
593.782	240
591.759	238
589.735	247.5
587.711	225
585.687	242.5
583.661	241
581.636	235
579.609	229
577.583	219
575.555	225.5
573.527	221.5
571.5	233
569.471	218.5
567.441	225
565.412	238
563.382	223.5
561.351	225.5
559.32	219
557.289	231.5
555.257	238.5
553.223	243
551.19	249
549.157	252
547.122	278
545.088	276
543.053	283
541.017	302
538.981	332.5
536.943	361
534.907	423
532.869	512.5
530.831	683
528.792	971
526.752	1411.5
524.713	2051.5
522.673	2467.5
520.632	2370
518.591	1945.5
516.549	1412
514.507	1003.5
512.464	714.5
510.42	544
508.377	436.5
506.332	386.5
504.288	357.5
502.242	337
500.196	330
498.15	312.5
496.104	310.5
494.056	322.5
492.008	300
489.96	302
487.911	300
485.862	291
483.812	277
481.761	292
479.71	294.5
477.659	295.5
475.607	289
473.555	287.5
471.502	287
469.448	302
467.395	286
465.34	287.5
463.285	285
461.23	277.5
459.174	292
457.118	286.5
455.061	291
453.003	286
450.945	299
448.887	303
446.828	302.5
444.768	294.5
442.708	302
440.647	301.5
438.587	302.5
436.525	320
434.463	318.5
432.4	318
430.337	320
428.274	321.5
426.21	327.5
424.145	324
422.079	334.5
420.014	334.5
417.948	317.5
415.882	329.5
413.814	321.5
411.746	326
409.679	330.5
407.609	341.5
405.54	354
403.47	338.5
401.401	342
399.329	343
397.258	336
395.187	340
393.114	328
391.041	333
388.968	342.5
386.895	341
384.82	342.5
382.745	350
380.67	353.5
378.594	356.5
376.517	348
374.44	358.5
372.363	358
370.286	358
368.207	361.5
366.128	369
364.049	369
361.969	369.5
359.888	377.5
357.807	369.5
355.725	381.5
353.643	378.5
351.561	387.5
349.477	376
347.394	375.5
345.31	377.5
343.226	383.5
341.141	383
339.055	390
336.968	393.5
334.882	387.5
332.795	406.5
330.707	399
328.618	407.5
326.53	410
324.44	425
322.351	422
320.26	431.5
318.17	432
316.078	450.5
313.987	454.5
311.895	475
309.802	488
307.708	495
305.614	519.5
303.52	518
301.425	520.5
299.329	514
297.233	496
295.137	492
293.039	496.5
290.942	495.5
288.844	492
286.745	511
284.647	497
282.546	513.5
280.446	511.5
278.346	528.5
276.245	531.5
274.143	520
272.041	516.5
269.939	531
267.835	535.5
265.731	543
263.627	559.5
261.522	555.5
259.417	568
257.311	571.5
255.204	565.5
253.098	585
250.99	590.5
248.882	601
246.774	595.5
244.664	607
242.555	622.5
240.445	619
238.334	634.5
236.223	636
234.112	649
232	666
229.888	667.5
227.775	675.5
225.661	681
223.546	677
221.431	696.5
219.316	694
217.201	711
215.084	704
212.967	703
210.85	696
208.732	722.5
206.614	698.5
204.495	702
202.375	704
200.256	706.5
198.135	690.5
196.014	688.5
193.893	697
191.771	686
189.648	693
187.525	684.5
185.401	695.5
183.277	703
181.152	691
179.027	697
176.901	702
174.775	693.5
172.648	711.5
170.521	713
168.393	714.5
166.265	731.5
164.136	743
162.007	757
159.876	754.5
157.746	769.5
155.615	784.5
153.483	808.5
151.351	819.5
149.219	843.5
147.086	872
144.952	890.5
142.818	909.5
140.684	943.5
138.548	969.5
136.413	986.5
134.276	1031
132.139	1057
130.002	1087
127.864	1143
125.725	1144.5
123.587	1209.5
121.447	1245
119.307	1288.5
117.166	1350.5
115.026	1388.5
112.885	1456
110.743	1467
108.6	1516
106.456	1560
104.313	1561
102.169	1537.5
100.023	1470
97.8789	1371
95.7328	1239.5
93.5869	1079.5
91.4392	917
89.2919	753
87.1447	599
84.9959	467
