3528.51	-19
3527.23	3
3525.95	-15
3524.67	-32
3523.39	-15
3522.1	21.5
3520.82	-7
3519.54	-19
3518.26	-1.5
3516.97	2
3515.69	15.5
3514.4	-3
3513.12	-9
3511.84	2.5
3510.55	6
3509.26	-3
3507.98	-24
3506.69	-2
3505.41	-2.5
3504.12	-27
3502.83	6
3501.54	-16.5
3500.26	-15
3498.97	-5
3497.68	-39.5
3496.39	-19
3495.1	0
3493.81	7.5
3492.52	-4
3491.23	19
3489.94	0
3488.65	-20
3487.36	7.5
3486.07	-23
3484.78	-21
3483.49	9.5
3482.19	-19.5
3480.9	-2
3479.61	11
3478.31	-3
3477.02	10.5
3475.73	-19
3474.43	-5
3473.14	-18
3471.84	-7.5
3470.54	-23.5
3469.25	1
3467.95	2
3466.66	-19
3465.36	-18
3464.06	3
3462.76	-14
3461.46	-7
3460.17	13.5
3458.87	0.5
3457.57	8
3456.27	-19
3454.97	-11
3453.67	-14.5
3452.37	14
3451.07	6
3449.77	20.5
3448.47	6
3447.16	4
3445.86	-18
3444.56	-2
3443.26	19
3441.95	-9.5
3440.65	-5
3439.35	11
3438.04	-13
3436.74	-21
3435.43	-1
3434.13	-3.5
3432.82	5.5
3431.52	-5
3430.21	1.5
3428.9	-17
3427.6	-10
3426.29	-6
3424.98	29
3423.67	8
3422.36	-25
3421.06	-14
3419.75	28.5
3418.44	-10.5
3417.13	5
3415.82	-15
3414.51	1
3413.2	-20.5
3411.88	-5
3410.57	-15
3409.26	10
3407.95	14
3406.64	-9
3405.32	-10
3404.01	0
3402.7	-16
3401.38	-7
3400.07	-6
3398.75	-2
3397.44	7.5
3396.12	-2
3394.81	1
3393.49	-11
3392.18	-3.5
3390.86	-31
3389.54	4
3388.23	-11
3386.91	-20.5
3385.59	7.5
3384.27	11
3382.95	-19.5
3381.63	4
3380.31	-10.5
3378.99	8.5
3377.67	-1
3376.35	14
3375.03	-28
3373.71	3
3372.39	5.5
3371.07	-22.5
3369.75	2
3368.42	13
3367.1	-14
3365.78	-17
3364.45	-7
3363.13	14.5
3361.81	-0.5
3360.48	-4
3359.16	-22
3357.83	-7.5
3356.51	6
3355.18	-7
3353.85	-2.5
3352.53	-17
3351.2	9
3349.87	-18
3348.54	-4
3347.22	-1
3345.89	11
3344.56	-11
3343.23	-18.5
3341.9	23
3340.57	-28.5
3339.24	15.5
3337.91	14
3336.58	-3
3335.25	-17
3333.92	6.5
3332.58	9.5
3331.25	-5
3329.92	-1.5
3328.59	-9
3327.25	0.5
3325.92	4
3324.58	-13
3323.25	9
3321.92	6
3320.58	-1
3319.25	4.5
3317.91	-29.5
3316.57	-6
3315.24	9
3313.9	7.5
3312.56	11
3311.23	12
3309.89	-16
3308.55	-2.5
3307.21	-2
3305.87	4
3304.53	-7
3303.19	0
3301.85	-12
3300.51	-21
3299.17	16
3297.83	0
3296.49	28
3295.15	0.5
3293.81	10.5
3292.46	-2
3291.12	-2
3289.78	-24
3288.43	10.5
3287.09	12.5
3285.75	5.5
3284.4	1.5
3283.06	5
3281.71	-15
3280.37	-7
3279.02	-2.5
3277.67	-10
3276.33	-15
3274.98	-33
3273.63	-6
3272.28	-17.5
3270.94	10
3269.59	3
3268.24	-17.5
3266.89	8
3265.54	-24
3264.19	-2.5
3262.84	7
3261.49	-7
3260.14	-13
3258.79	-3.5
3257.44	-21
3256.08	2
3254.73	-2
3253.38	16.5
3252.03	-3.5
3250.67	-8
3249.32	5.5
3247.96	9
3246.61	4
3245.26	-11
3243.9	-5.5
3242.54	5
3241.19	-17.5
3239.83	-0.5
3238.48	-0.5
3237.12	3
3235.76	-16
3234.41	-9
3233.05	17
3231.69	15.5
3230.33	-3
3228.97	1
3227.61	-1
3226.25	11
3224.89	-24
3223.53	-8
3222.17	10.5
3220.81	-14
3219.45	6
3218.09	10.5
3216.72	-1
3215.36	15
3214	-25
3212.63	-8
3211.27	-9.5
3209.91	4
3208.54	-4
3207.18	7.5
3205.81	28
3204.45	-18
3203.08	21
3201.71	22
3200.35	-10.5
3198.98	2.5
3197.61	-7
3196.25	-17.5
3194.88	25
3193.51	3
3192.14	-11
3190.77	12.5
3189.4	16
3188.03	-11
3186.66	0
3185.29	21.5
3183.92	15
3182.55	-13
3181.18	6
3179.81	-19
3178.44	5
3177.06	16
3175.69	-5.5
3174.32	12.5
3172.94	6.5
3171.57	17
3170.2	7.5
3168.82	-27
3167.45	6.5
3166.07	0.5
3164.69	18
3163.32	17
3161.94	-6.5
3160.56	5.5
3159.19	16.5
3157.81	-25
3156.43	16
3155.05	16.5
3153.67	0
3152.3	7
3150.92	15.5
3149.54	-2
3148.16	-1
3146.78	4.5
3145.4	-9
3144.01	15
3142.63	8
3141.25	26
3139.87	20.5
3138.49	17
3137.1	-3
3135.72	14.5
3134.34	5.5
3132.95	21
3131.57	6
3130.18	5
3128.8	-3
3127.41	0
3126.03	11
3124.64	3.5
3123.25	-10.5
3121.87	23.5
3120.48	1
3119.09	22
3117.7	1
3116.32	18
3114.93	25
3113.54	15.5
3112.15	4.5
3110.76	7
3109.37	4
3107.98	35.5
3106.59	13
3105.2	16
3103.8	6
3102.41	8
3101.02	27
3099.63	-8
3098.23	10.5
3096.84	11
3095.45	13
3094.05	28.5
3092.66	21.5
3091.26	-12.5
3089.87	47
3088.47	5.5
3087.08	11.5
3085.68	20
3084.28	5
3082.89	29.5
3081.49	35.5
3080.09	22
3078.69	20.5
3077.3	26
3075.9	18
3074.5	13
3073.1	41.5
3071.7	22
3070.3	9.5
3068.9	36
3067.5	22.5
3066.09	40.5
3064.69	14
3063.29	7
3061.89	21
3060.48	36
3059.08	29.5
3057.68	7
3056.27	46
3054.87	16.5
3053.46	13
3052.06	58
3050.65	30
3049.25	40.5
3047.84	20.5
3046.44	32
3045.03	38
3043.62	43.5
3042.21	47.5
3040.81	27
3039.4	38.5
3037.99	62.5
3036.58	42.5
3035.17	29
3033.76	24
3032.35	56.5
3030.94	22
3029.53	39
3028.12	57.5
3026.71	62
3025.29	78
3023.88	37
3022.47	69
3021.06	74
3019.64	76.5
3018.23	70.5
3016.82	46
3015.4	68
3013.99	97.5
3012.57	89.5
3011.15	81
3009.74	111
3008.32	76
3006.91	73.5
3005.49	96
3004.07	133.5
3002.65	101.5
3001.24	124
2999.82	127
2998.4	98
2996.98	147
2995.56	126
2994.14	124
2992.72	156.5
2991.3	126.5
2989.88	152
2988.46	150
2987.03	154
2985.61	147.5
2984.19	159.5
2982.77	187
2981.34	151.5
2979.92	207.5
2978.49	162
2977.07	197
2975.65	239
2974.22	217
2972.79	200
2971.37	229
2969.94	255
2968.52	247
2967.09	287
2965.66	291
2964.23	294
2962.81	332.5
2961.38	320
2959.95	345
2958.52	361.5
2957.09	350
2955.66	382.5
2954.23	384
2952.8	383.5
2951.37	432.5
2949.94	419
2948.5	438.5
2947.07	467
2945.64	520
2944.21	502
2942.77	524.5
2941.34	559
2939.91	544
2938.47	606.5
2937.04	631.5
2935.6	668
2934.17	648
2932.73	684
2931.29	703.5
2929.86	724
2928.42	749
2926.98	762
2925.55	798
2924.11	782
2922.67	822
2921.23	823
2919.79	833
2918.35	839
2916.91	879
2915.47	884
2914.03	900.5
2912.59	954
2911.15	938
2909.71	969
2908.26	974
2906.82	958
2905.38	990
2903.94	1002
2902.49	1012
2901.05	1020
2899.6	1070
2898.16	1089
2896.71	1074
2895.27	1101
2893.82	1182.5
2892.38	1172
2890.93	1185
2889.48	1222
2888.03	1217
2886.59	1249
2885.14	1272
2883.69	1285
2882.24	1280.5
2880.79	1349
2879.34	1354.5
2877.89	1270
2876.44	1281
2874.99	1278
2873.54	1270
2872.09	1218
2870.64	1246.5
2869.18	1195
2867.73	1209.5
2866.28	1222.5
2864.83	1194.5
2863.37	1194
2861.92	1196
2860.46	1205.5
2859.01	1191
2857.55	1175
2856.1	1226.5
2854.64	1239
2853.19	1141
2851.73	1216.5
2850.27	1153.5
2848.81	1159
2847.36	1120
2845.9	1104
2844.44	1049
2842.98	1042.5
2841.52	971.5
2840.06	909.5
2838.6	846
2837.14	763
2835.68	703
2834.22	634
2832.76	582
2831.3	555
2829.83	521
2828.37	467
2826.91	449
2825.44	417.5
2823.98	367
2822.52	347
2821.05	326
2819.59	291
2818.12	292
2816.66	270
2815.19	261
2813.72	229
2812.26	230.5
2810.79	210
2809.32	198.5
2807.85	183
2806.38	176
2804.92	155
2803.45	153
2801.98	160
2800.51	150.5
2799.04	148
2797.57	129
2796.1	130.5
2794.62	149.5
2793.15	127
2791.68	125.5
2790.21	143.5
2788.73	112.5
2787.26	103.5
2785.79	108
2784.31	117.5
2782.84	95
2781.36	99
2779.89	108
2778.41	107
2776.94	102
2775.46	109
2773.99	82
2772.51	112
2771.03	98
2769.55	104
2768.07	91
2766.6	81
2765.12	112
2763.64	102.5
2762.16	112
2760.68	103
2759.2	67
2757.72	108.5
2756.24	97.5
2754.75	104
2753.27	111
2751.79	99
2750.31	115
2748.82	120
2747.34	106
2745.86	113
2744.37	139
2742.89	127
2741.4	136
2739.92	128
2738.43	151
2736.94	138
2735.46	155
2733.97	144.5
2732.48	175
2731	160
2729.51	151
2728.02	185
2726.53	183.5
2725.04	169
2723.55	187.5
2722.06	167
2720.57	176
2719.08	172
2717.59	195
2716.1	167
2714.61	179
2713.11	147
2711.62	164
2710.13	169
2708.64	161
2707.14	145
2705.65	124
2704.15	145.5
2702.66	144.5
2701.16	131
2699.67	151
2698.17	139
2696.67	133.5
2695.18	122.5
2693.68	116
2692.18	107.5
2690.69	97.5
2689.19	123
2687.69	119.5
2686.19	100
2684.69	132
2683.19	102
2681.69	115
2680.19	98
2678.69	90
2677.19	112
2675.68	109
2674.18	103
2672.68	111
2671.18	96
2669.67	112
2668.17	104.5
2666.66	102.5
2665.16	105.5
2663.66	78
2662.15	86
2660.64	105
2659.14	98
2657.63	89
2656.13	107
2654.62	113
2653.11	82.5
2651.6	100.5
2650.09	94
2648.58	109
2647.08	95.5
2645.57	88
2644.06	91
2642.55	81
2641.04	75
2639.52	73
2638.01	86.5
2636.5	91
2634.99	76
2633.48	76
2631.96	76
2630.45	80
2628.94	105.5
2627.42	83
2625.91	95
2624.39	66.5
2622.88	86
2621.36	97
2619.85	70
2618.33	68
2616.81	88.5
2615.3	85
2613.78	97
2612.26	68.5
2610.74	75
2609.22	70.5
2607.7	103
2606.18	54
2604.66	68
2603.14	70
2601.62	79
2600.1	76
2598.58	80.5
2597.06	79.5
2595.54	65
2594.01	77
2592.49	102
2590.97	84
2589.44	66
2587.92	47
2586.39	60
2584.87	88
2583.34	60
2581.82	81
2580.29	64
2578.76	86.5
2577.24	94
2575.71	71.5
2574.18	80.5
2572.65	78
2571.13	65
2569.6	62.5
2568.07	49.5
2566.54	50
2565.01	41
2563.48	67
2561.95	77.5
2560.42	68
2558.88	56
2557.35	81
2555.82	52
2554.29	51
2552.75	56
2551.22	69
2549.69	42
2548.15	74
2546.62	50
2545.08	47.5
2543.55	71.5
2542.01	46.5
2540.47	59.5
2538.94	62
2537.4	37.5
2535.86	47.5
2534.33	53
2532.79	65
2531.25	44
2529.71	41
2528.17	60
2526.63	34.5
2525.09	54
2523.55	58
2522.01	60.5
2520.47	25.5
2518.92	35
2517.38	28.5
2515.84	36
2514.3	63.5
2512.75	60.5
2511.21	46
2509.67	66.5
2508.12	43
2506.58	57
2505.03	57
2503.49	43.5
2501.94	31.5
2500.39	53
2498.85	43
2497.3	37.5
2495.75	27
2494.2	74
2492.65	43
2491.11	58
2489.56	37
2488.01	48.5
2486.46	44
2484.91	76
2483.36	17
2481.8	52
2480.25	53
2478.7	50
2477.15	23
2475.6	38
2474.04	35.5
2472.49	48.5
2470.93	54.5
2469.38	51
2467.83	37
2466.27	53
2464.71	53.5
2463.16	38.5
2461.6	16
2460.05	44
2458.49	60.5
2456.93	40
2455.37	77
2453.81	60
2452.26	50
2450.7	41.5
2449.14	52
2447.58	70
2446.02	27
2444.46	67
2442.9	60
2441.33	51
2439.77	55
2438.21	69.5
2436.65	68
2435.08	38
2433.52	58
2431.96	39
2430.39	32
2428.83	56
2427.26	47.5
2425.7	52
2424.13	25
2422.56	48.5
2421	63.5
2419.43	38
2417.86	47
2416.3	60
2414.73	32.5
2413.16	34
2411.59	56.5
2410.02	68
2408.45	11
2406.88	12
2405.31	52
2403.74	36
2402.17	53.5
2400.6	66
2399.02	43.5
2397.45	32
2395.88	60.5
2394.3	62
2392.73	60.5
2391.16	53
2389.58	70.5
2388.01	55
2386.43	26
2384.86	42
2383.28	70
2381.7	49
2380.13	66
2378.55	43.5
2376.97	53
2375.39	35.5
2373.81	64
2372.23	36
2370.65	70.5
2369.07	55.5
2367.49	58.5
2365.91	17
2364.33	54
2362.75	76
2361.17	33.5
2359.59	48
2358.01	38
2356.42	73
2354.84	35
2353.25	34
2351.67	33
2350.09	59.5
2348.5	42
2346.92	52
2345.33	44
2343.74	47
2342.16	36
2340.57	64.5
2338.98	36.5
2337.39	86
2335.81	59
2334.22	62
2332.63	77
2331.04	62.5
2329.45	66
2327.86	78
2326.27	62
2324.68	60.5
2323.09	45
2321.49	73
2319.9	53.5
2318.31	53.5
2316.72	39
2315.12	51
2313.53	68
2311.93	61.5
2310.34	54.5
2308.74	68
2307.15	51
2305.55	52.5
2303.96	64
2302.36	91.5
2300.76	39.5
2299.17	28
2297.57	73
2295.97	52
2294.37	58.5
2292.77	30
2291.17	74
2289.57	41
2287.97	61.5
2286.37	78.5
2284.77	63
2283.17	66.5
2281.57	56
2279.96	53
2278.36	63
2276.76	44
2275.15	58
2273.55	60
2271.95	58.5
2270.34	33
2268.74	39.5
2267.13	66
2265.52	56
2263.92	44
2262.31	56
2260.7	58
2259.1	61
2257.49	71.5
2255.88	50
2254.27	92.5
2252.66	53
2251.05	78
2249.44	51.5
2247.83	57
2246.22	70
2244.61	50
2243	95.5
2241.39	55
2239.77	74.5
2238.16	59
2236.55	49
2234.93	70.5
2233.32	68
2231.7	57
2230.09	73.5
2228.47	79.5
2226.86	58
2225.24	70
2223.63	55.5
2222.01	75.5
2220.39	57.5
2218.77	70
2217.16	67.5
2215.54	77.5
2213.92	58
2212.3	44.5
2210.68	60.5
2209.06	57
2207.44	46
2205.82	53.5
2204.19	65.5
2202.57	73.5
2200.95	88
2199.33	68
2197.7	78.5
2196.08	80.5
2194.46	88
2192.83	86
2191.21	106.5
2189.58	95
2187.96	91
2186.33	86
2184.7	112
2183.08	84
2181.45	72
2179.82	48
2178.19	69
2176.57	84
2174.94	82.5
2173.31	61
2171.68	71.5
2170.05	81
2168.42	64
2166.79	74
2165.16	65
2163.52	74
2161.89	54
2160.26	56
2158.63	65
2156.99	75
2155.36	71.5
2153.73	90.5
2152.09	67
2150.46	73
2148.82	70.5
2147.18	81
2145.55	57
2143.91	63
2142.27	54
2140.64	69
2139	68
2137.36	68
2135.72	61.5
2134.08	71
2132.44	75
2130.8	56
2129.16	52
2127.52	92
2125.88	65.5
2124.24	65
2122.6	77
2120.95	72
2119.31	79.5
2117.67	74
2116.02	57.5
2114.38	76
2112.74	84
2111.09	60
2109.45	79
2107.8	69
2106.15	51
2104.51	59
2102.86	76
2101.21	72.5
2099.56	74.5
2097.92	71.5
2096.27	67
2094.62	68.5
2092.97	48.5
2091.32	65
2089.67	55.5
2088.02	80
2086.37	76
2084.72	81.5
2083.06	67
2081.41	51
2079.76	90.5
2078.1	64
2076.45	58
2074.8	73
2073.14	68
2071.49	51
2069.83	50
2068.18	69
2066.52	75
2064.86	77.5
2063.21	75.5
2061.55	65.5
2059.89	68
2058.23	92
2056.57	64
2054.92	98
2053.26	53
2051.6	49.5
2049.94	77.5
2048.27	74
2046.61	51.5
2044.95	82.5
2043.29	74.5
2041.63	76.5
2039.97	59
2038.3	81
2036.64	71.5
2034.97	101
2033.31	56
2031.64	68
2029.98	76
2028.31	89.5
2026.65	88
2024.98	84
2023.31	72.5
2021.65	60
2019.98	71
2018.31	77.5
2016.64	72
2014.97	70
2013.3	73.5
2011.63	48
2009.96	58
2008.29	82
2006.62	75
2004.95	73
2003.28	57
2001.6	99
1999.93	69
1998.26	64
1996.58	67
1994.91	90
1993.24	60.5
1991.56	83
1989.89	97.5
1988.21	74
1986.53	74
1984.86	85
1983.18	51
1981.5	68.5
1979.82	71.5
1978.15	67
1976.47	99
1974.79	94.5
1973.11	47.5
1971.43	97.5
1969.75	102
1968.07	75
1966.38	82.5
1964.7	54
1963.02	81
1961.34	77.5
1959.66	82.5
1957.97	99
1956.29	87
1954.6	94.5
1952.92	87.5
1951.23	59
1949.55	81
1947.86	54
1946.18	67
1944.49	79
1942.8	82
1941.11	87.5
1939.43	71
1937.74	53.5
1936.05	98.5
1934.36	92
1932.67	68.5
1930.98	81
1929.29	67
1927.6	80
1925.91	72
1924.21	103
1922.52	66
1920.83	84.5
1919.14	109
1917.44	75
1915.75	61.5
1914.05	103.5
1912.36	95
1910.66	94.5
1908.97	90
1907.27	78
1905.58	84
1903.88	86.5
1902.18	88
1900.48	76.5
1898.79	105
1897.09	65
1895.39	111.5
1893.69	97.5
1891.99	88
1890.29	85.5
1888.59	79
1886.89	129
1885.18	69
1883.48	88.5
1881.78	104
1880.08	97
1878.37	115
1876.67	92
1874.96	112.5
1873.26	84
1871.55	78
1869.85	108
1868.14	101.5
1866.44	87
1864.73	103
1863.02	102.5
1861.32	110
1859.61	86.5
1857.9	107
1856.19	84.5
1854.48	96
1852.77	83
1851.06	110.5
1849.35	84
1847.64	86
1845.93	102
1844.21	75
1842.5	120
1840.79	100.5
1839.08	71.5
1837.36	117
1835.65	105
1833.93	100.5
1832.22	105
1830.5	97.5
1828.79	87
1827.07	98
1825.36	90
1823.64	102.5
1821.92	104
1820.2	113.5
1818.48	97
1816.77	99
1815.05	98
1813.33	84
1811.61	125
1809.89	88
1808.16	108
1806.44	105
1804.72	104
1803	95
1801.28	81
1799.55	128
1797.83	87
1796.11	111
1794.38	131
1792.66	123
1790.93	117
1789.21	127.5
1787.48	107.5
1785.75	104
1784.03	99
1782.3	104.5
1780.57	113
1778.84	156
1777.11	94
1775.38	124.5
1773.66	122
1771.93	123
1770.19	147.5
1768.46	141
1766.73	137
1765	173
1763.27	173
1761.54	181.5
1759.8	204
1758.07	204.5
1756.34	230
1754.6	274
1752.87	285
1751.13	321
1749.4	348
1747.66	375.5
1745.92	390.5
1744.19	430
1742.45	397
1740.71	380.5
1738.97	348
1737.23	305.5
1735.49	304.5
1733.75	281.5
1732.01	261
1730.27	253
1728.53	266
1726.79	241
1725.05	191
1723.31	194
1721.57	157
1719.82	175
1718.08	176
1716.34	158
1714.59	168
1712.85	158
1711.1	164
1709.36	156
1707.61	170
1705.86	158
1704.12	172
1702.37	143.5
1700.62	134
1698.87	151
1697.12	175.5
1695.37	148.5
1693.62	168
1691.87	183.5
1690.12	166.5
1688.37	166
1686.62	171
1684.87	182
1683.12	177
1681.36	181
1679.61	216
1677.86	252.5
1676.1	287
1674.35	329
1672.59	348
1670.84	382.5
1669.08	403
1667.33	428
1665.57	455.5
1663.81	478.5
1662.06	529
1660.3	615
1658.54	624
1656.78	709
1655.02	726
1653.26	665
1651.5	604.5
1649.74	518
1647.98	451
1646.22	402.5
1644.46	326
1642.7	305
1640.93	299.5
1639.17	269
1637.41	245.5
1635.64	257
1633.88	227.5
1632.11	219
1630.35	229
1628.58	218
1626.81	208
1625.05	177
1623.28	190
1621.51	193
1619.75	179.5
1617.98	190
1616.21	177
1614.44	206.5
1612.67	161
1610.9	187
1609.13	178
1607.36	193
1605.58	192
1603.81	161
1602.04	164
1600.27	177.5
1598.49	170
1596.72	172
1594.95	197.5
1593.17	180
1591.4	221.5
1589.62	165.5
1587.84	190.5
1586.07	192
1584.29	190
1582.51	167.5
1580.74	206.5
1578.96	204.5
1577.18	185.5
1575.4	185
1573.62	199.5
1571.84	190
1570.06	198
1568.28	206
1566.5	192.5
1564.72	179.5
1562.93	236
1561.15	206
1559.37	249
1557.58	251
1555.8	220
1554.02	216.5
1552.23	220
1550.45	233
1548.66	201.5
1546.87	252.5
1545.09	217
1543.3	200
1541.51	223
1539.72	246.5
1537.94	263
1536.15	214
1534.36	254
1532.57	261.5
1530.78	232.5
1528.99	242.5
1527.2	231
1525.4	262
1523.61	255
1521.82	271.5
1520.03	285
1518.23	259
1516.44	321
1514.65	267
1512.85	305.5
1511.06	278
1509.26	340
1507.46	334
1505.67	345
1503.87	352.5
1502.07	356
1500.28	386
1498.48	403
1496.68	427
1494.88	455.5
1493.08	465.5
1491.28	497
1489.48	539.5
1487.68	553
1485.88	660.5
1484.08	704.5
1482.27	801
1480.47	871
1478.67	972
1476.86	1091
1475.06	1203
1473.25	1355.5
1471.45	1587
1469.64	1720.5
1467.84	1920
1466.03	2061.5
1464.23	2190
1462.42	2260
1460.61	2414.5
1458.8	2447.5
1456.99	2519.5
1455.18	2605.5
1453.37	2693
1451.56	2805
1449.75	2824
1447.94	3035
1446.13	3195.5
1444.32	3374
1442.51	3432.5
1440.7	3437
1438.88	3256.5
1437.07	2942
1435.26	2652
1433.44	2205
1431.63	1885.5
1429.81	1507
1427.99	1343
1426.18	1180.5
1424.36	1089
1422.54	1009.5
1420.73	964
1418.91	881
1417.09	831
1415.27	779
1413.45	712
1411.63	673
1409.81	626.5
1407.99	549
1406.17	538
1404.35	488
1402.53	499
1400.7	465.5
1398.88	463.5
1397.06	435.5
1395.23	429.5
1393.41	442
1391.58	427
1389.76	411
1387.93	382
1386.11	429
1384.28	420
1382.45	484
1380.62	461.5
1378.8	522
1376.97	474.5
1375.14	553
1373.31	612
1371.48	608
1369.65	600.5
1367.82	610
1365.99	572.5
1364.16	579.5
1362.32	532
1360.49	554.5
1358.66	502.5
1356.82	538
1354.99	515
1353.16	496
1351.32	505.5
1349.48	531.5
1347.65	498.5
1345.81	559
1343.98	538.5
1342.14	582
1340.3	594
1338.46	579.5
1336.62	616.5
1334.79	628.5
1332.95	613
1331.11	669.5
1329.27	701.5
1327.42	779
1325.58	827.5
1323.74	875
1321.9	955
1320.06	1006
1318.21	1149
1316.37	1231.5
1314.53	1352
1312.68	1470
1310.84	1599
1308.99	1756
1307.15	1933
1305.3	2180.5
1303.45	2475.5
1301.61	2736.5
1299.76	3092.5
1297.91	3252
1296.06	2994
1294.21	2492
1292.36	2043.5
1290.51	1708
1288.66	1499
1286.81	1324
1284.96	1254
1283.11	1148.5
1281.26	1123.5
1279.4	1091
1277.55	1058
1275.7	1070.5
1273.84	1058.5
1271.99	1035
1270.13	1025
1268.28	991
1266.42	1000.5
1264.56	978
1262.71	951
1260.85	914.5
1258.99	937
1257.13	900
1255.27	901.5
1253.41	851.5
1251.56	849
1249.7	810.5
1247.83	814
1245.97	776.5
1244.11	737.5
1242.25	673
1240.39	645.5
1238.52	667.5
1236.66	624.5
1234.8	589.5
1232.93	614.5
1231.07	551
1229.2	534
1227.34	537
1225.47	525
1223.6	527
1221.74	516
1219.87	504.5
1218	507
1216.13	473
1214.26	505
1212.39	522.5
1210.53	510.5
1208.65	544
1206.78	528.5
1204.91	505
1203.04	536
1201.17	514
1199.3	511
1197.42	499.5
1195.55	535
1193.68	508
1191.8	530.5
1189.93	548
1188.05	552
1186.17	583.5
1184.3	599
1182.42	594
1180.54	649
1178.67	664
1176.79	671
1174.91	645.5
1173.03	592
1171.15	599.5
1169.27	604
1167.39	589
1165.51	628
1163.63	583
1161.75	588
1159.86	597
1157.98	611
1156.1	611
1154.21	618
1152.33	603
1150.44	621
1148.56	644
1146.67	616.5
1144.79	679
1142.9	669.5
1141.01	760.5
1139.12	828.5
1137.24	986
1135.35	1230.5
1133.46	1573
1131.57	1795
1129.68	1863.5
1127.79	1723.5
1125.9	1505.5
1124.01	1312
1122.12	1169.5
1120.22	1117
1118.33	1033
1116.44	1056.5
1114.54	1028
1112.65	1031
1110.75	1061
1108.86	1148
1106.96	1238
1105.07	1304
1103.17	1357.5
1101.27	1390
1099.38	1364
1097.48	1335
1095.58	1336
1093.68	1370.5
1091.78	1392.5
1089.88	1375.5
1087.98	1412
1086.08	1463
1084.18	1455.5
1082.28	1502
1080.38	1534
1078.47	1469
1076.57	1532
1074.67	1458
1072.76	1544.5
1070.86	1595
1068.95	1769.5
1067.05	2050
1065.14	2360.5
1063.24	2511.5
1061.33	2411
1059.42	2115
1057.51	1711
1055.6	1477
1053.7	1306
1051.79	1204.5
1049.88	1088.5
1047.97	1002
1046.06	954
1044.14	997.5
1042.23	957
1040.32	961
1038.41	931
1036.5	935
1034.58	927.5
1032.67	932
1030.75	917
1028.84	880
1026.92	881
1025.01	839.5
1023.09	872.5
1021.17	880.5
1019.26	846.5
1017.34	864.5
1015.42	853
1013.5	821
1011.58	787
1009.66	777.5
1007.74	751
1005.82	732.5
1003.9	743.5
1001.98	729
1000.06	729
998.134	728.5
996.212	747
994.288	710
992.364	718
990.44	697
988.515	652
986.589	676
984.663	693.5
982.737	687
980.81	734
978.883	694
976.955	752
975.027	771.5
973.098	774
971.169	783.5
969.239	773
967.308	786
965.378	771
963.447	775.5
961.516	831.5
959.583	818
957.65	791
955.718	748
953.784	754.5
951.85	753.5
949.916	722.5
947.981	709
946.045	744
944.109	755.5
942.173	750.5
940.236	777.5
938.298	787
936.36	741
934.422	803.5
932.484	814.5
930.544	825.5
928.604	884.5
926.664	939
924.724	938
922.782	1008.5
920.84	1013
918.898	974.5
916.955	975.5
915.012	949
913.068	990.5
911.124	993
909.18	1032.5
907.235	961.5
905.289	1015.5
903.343	990.5
901.397	997
899.45	1131.5
897.502	1159
895.554	1243
893.605	1375.5
891.657	1429
889.707	1427
887.758	1396.5
885.807	1272
883.856	1188
881.905	1175.5
879.953	1219
878.001	1194
876.048	1243
874.094	1204
872.14	1194
870.186	1229.5
868.232	1153.5
866.276	1147
864.321	1118
862.365	1111.5
860.408	1095
858.451	1066.5
856.493	1035
854.535	1038
852.576	1040
850.617	1077
848.658	1080.5
846.698	1040
844.737	1013
842.776	1039
840.814	1028
838.852	1029
836.89	949
834.927	920.5
832.963	907
830.999	873
829.035	866.5
827.07	844.5
825.105	856.5
823.139	826.5
821.172	794
819.206	790
817.238	778
815.27	749.5
813.301	761.5
811.333	715
809.363	690.5
807.394	692
805.424	672.5
803.453	616
801.482	631
799.509	623.5
797.538	609.5
795.565	551
793.592	574
791.618	575
789.643	562
787.669	537
785.693	599
783.718	579.5
781.742	547.5
779.765	557
777.788	557.5
775.811	545
773.832	554.5
771.853	566.5
769.875	543.5
767.895	567
765.915	532
763.934	573.5
761.953	552.5
759.972	571.5
757.99	539
756.007	531
754.024	549
752.041	542
750.056	525.5
748.072	543.5
746.087	567
744.102	538
742.116	546
740.13	565.5
738.143	548
736.155	538
734.167	544
732.179	587
730.19	581
728.2	565
726.21	568
724.22	568.5
722.229	577.5
720.237	548
718.246	545
716.253	512.5
714.26	532.5
712.267	503.5
710.273	521
708.279	487
706.284	480.5
704.289	493
702.293	493
700.296	465.5
698.3	503.5
696.303	479.5
694.305	441.5
692.307	466
690.307	434
688.308	468
686.309	448.5
684.308	452
682.308	448
680.306	418
678.304	446.5
676.302	429
674.3	450
672.296	432
670.293	452.5
668.289	452
666.284	499.5
664.278	436.5
662.273	458
660.266	455
658.26	442
656.252	477
654.244	476.5
652.237	466
650.227	468
648.218	487.5
646.209	504
644.198	484
642.188	506.5
640.177	516.5
638.165	492.5
636.153	482.5
634.14	545.5
632.128	542
630.113	564
628.099	557.5
626.085	561.5
624.07	574
622.054	536.5
620.038	537
618.021	598
616.004	587.5
613.986	641.5
611.968	647
609.949	708.5
607.93	741.5
605.911	723
603.891	727
601.87	700.5
599.848	627
597.827	647
595.805	582.5
593.782	557.5
591.759	590
589.735	590
587.711	591.5
585.687	564.5
583.661	584
581.636	564.5
579.609	544
577.583	561
575.555	531.5
573.527	550
571.5	519
569.471	503.5
567.441	499
565.412	522
563.382	501
561.351	534
559.32	543.5
557.289	528
555.257	524
553.223	528
551.19	549
549.157	568.5
547.122	573
545.088	557.5
543.053	556
541.017	606.5
538.981	584
536.943	563
534.907	593
532.869	599
530.831	626
528.792	631
526.752	644
524.713	668
522.673	701
520.632	711
518.591	703.5
516.549	713
514.507	694.5
512.464	679
510.42	658
508.377	675.5
506.332	673
504.288	632.5
502.242	665
500.196	653.5
498.15	603
496.104	625.5
494.056	654.5
492.008	655
489.96	674
487.911	677
485.862	687
483.812	641.5
481.761	695
479.71	668
477.659	685
475.607	677
473.555	719.5
471.502	700
469.448	686.5
467.395	672.5
465.34	703
463.285	696
461.23	698
459.174	715
457.118	734.5
455.061	716.5
453.003	722
450.945	704.5
448.887	745
446.828	715.5
444.768	712.5
442.708	720.5
440.647	742
438.587	762.5
436.525	746
434.463	748
432.4	748.5
430.337	752
428.274	752.5
426.21	795
424.145	758.5
422.079	769
420.014	755
417.948	817.5
415.882	806.5
413.814	815.5
411.746	829.5
409.679	838.5
407.609	831.5
405.54	831
403.47	849.5
401.401	811.5
399.329	829
397.258	812
395.187	810.5
393.114	787
391.041	823.5
388.968	803
386.895	809
384.82	846
382.745	803.5
380.67	885.5
378.594	849.5
376.517	863.5
374.44	856
372.363	847
370.286	841.5
368.207	831.5
366.128	848
364.049	863
361.969	823
359.888	883.5
357.807	867
355.725	869
353.643	870
351.561	859
349.477	879
347.394	846
345.31	893
343.226	830.5
341.141	900
339.055	885.5
336.968	877.5
334.882	883.5
332.795	914
330.707	900
328.618	914.5
326.53	907
324.44	959
322.351	920.5
320.26	965
318.17	943.5
316.078	985.5
313.987	1009.5
311.895	1002
309.802	994
307.708	1031.5
305.614	1026
303.52	1089
301.425	1114
299.329	1070
297.233	1117.5
295.137	1128
293.039	1096
290.942	1199
288.844	1183.5
286.745	1168
284.647	1143.5
282.546	1235
280.446	1235
278.346	1227
276.245	1250
274.143	1255.5
272.041	1277.5
269.939	1319
267.835	1316.5
265.731	1348.5
263.627	1367.5
261.522	1320
259.417	1376
257.311	1385
255.204	1473.5
253.098	1414
250.99	1456.5
248.882	1464
246.774	1521.5
244.664	1516.5
242.555	1529.5
240.445	1529.5
238.334	1564.5
236.223	1580
234.112	1605
232	1663.5
229.888	1677
227.775	1666.5
225.661	1713.5
223.546	1783
221.431	1759
219.316	1711
217.201	1782.5
215.084	1801
212.967	1824.5
210.85	1860.5
208.732	1909.5
206.614	1896
204.495	1927.5
202.375	1859.5
200.256	1908.5
198.135	2006
196.014	1973.5
193.893	1972
191.771	1967
189.648	2011
187.525	2020.5
185.401	2060
183.277	2043.5
181.152	2097.5
179.027	2094
176.901	2100
174.775	2135.5
172.648	2186.5
170.521	2225.5
168.393	2287.5
166.265	2313.5
164.136	2356
162.007	2456
159.876	2549.5
157.746	2533
155.615	2660
153.483	2705.5
151.351	2781.5
149.219	2889
147.086	3032.5
144.952	3073
142.818	3164.5
140.684	3266.5
138.548	3363
136.413	3410
134.276	3492
132.139	3638
130.002	3645.5
127.864	3742
125.725	3908.5
123.587	3991.5
121.447	4138
119.307	4294
117.166	4483.5
115.026	4638.5
112.885	4865
110.743	5016
108.6	5166
106.456	5392
104.313	5483
102.169	5443
100.023	5382
97.8789	5199
95.7328	4726
93.5869	4269
91.4392	3700
89.2919	3086
87.1447	2483
84.9959	1909
