3528.51	107
3527.23	139
3525.95	165
3524.67	158
3523.39	171.5
3522.1	159
3520.82	159.5
3519.54	170
3518.26	169.5
3516.97	172
3515.69	131
3514.4	141
3513.12	150
3511.84	166
3510.55	177.5
3509.26	168
3507.98	135
3506.69	176.5
3505.41	166
3504.12	124
3502.83	187
3501.54	158
3500.26	147.5
3498.97	176.5
3497.68	166
3496.39	205
3495.1	152
3493.81	190.5
3492.52	164
3491.23	183.5
3489.94	217
3488.65	169.5
3487.36	201
3486.07	205
3484.78	178
3483.49	190
3482.19	189.5
3480.9	210
3479.61	217
3478.31	219
3477.02	187
3475.73	225.5
3474.43	201
3473.14	212
3471.84	232
3470.54	219
3469.25	215
3467.95	228
3466.66	204.5
3465.36	227
3464.06	223
3462.76	235
3461.46	225
3460.17	225.5
3458.87	237.5
3457.57	225
3456.27	238
3454.97	210
3453.67	266
3452.37	245.5
3451.07	219
3449.77	226
3448.47	257
3447.16	257
3445.86	250
3444.56	259
3443.26	275
3441.95	262
3440.65	264.5
3439.35	280
3438.04	271
3436.74	288.5
3435.43	301.5
3434.13	280.5
3432.82	282.5
3431.52	297
3430.21	296
3428.9	308.5
3427.6	318
3426.29	306
3424.98	318.5
3423.67	332.5
3422.36	324
3421.06	318
3419.75	338.5
3418.44	354
3417.13	322
3415.82	384
3414.51	357
3413.2	383
3411.88	350
3410.57	365
3409.26	404
3407.95	379
3406.64	353
3405.32	401
3404.01	380.5
3402.7	380.5
3401.38	386
3400.07	387.5
3398.75	431
3397.44	386.5
3396.12	395.5
3394.81	379
3393.49	405
3392.18	421
3390.86	374
3389.54	421.5
3388.23	420
3386.91	438.5
3385.59	457
3384.27	468.5
3382.95	438
3381.63	434
3380.31	425
3378.99	431
3377.67	458
3376.35	479.5
3375.03	453.5
3373.71	491
3372.39	488
3371.07	483
3369.75	463.5
3368.42	467.5
3367.1	441
3365.78	478
3364.45	491.5
3363.13	499.5
3361.81	484.5
3360.48	474
3359.16	515
3357.83	518
3356.51	507.5
3355.18	514.5
3353.85	533.5
3352.53	521
3351.2	539
3349.87	521
3348.54	522
3347.22	501
3345.89	486
3344.56	552.5
3343.23	533
3341.9	553
3340.57	521.5
3339.24	559
3337.91	521.5
3336.58	559.5
3335.25	513
3333.92	543.5
3332.58	532
3331.25	556
3329.92	539
3328.59	581.5
3327.25	570
3325.92	566
3324.58	583
3323.25	580.5
3321.92	561
3320.58	574
3319.25	583.5
3317.91	589
3316.57	569
3315.24	571.5
3313.9	582.5
3312.56	563
3311.23	551.5
3309.89	586
3308.55	560
3307.21	578.5
3305.87	601.5
3304.53	596
3303.19	599
3301.85	590
3300.51	604
3299.17	614.5
3297.83	593
3296.49	601.5
3295.15	607
3293.81	623.5
3292.46	650
3291.12	651.5
3289.78	617
3288.43	643.5
3287.09	601
3285.75	630
3284.4	611
3283.06	661
3281.71	636
3280.37	637.5
3279.02	658
3277.67	683.5
3276.33	653
3274.98	662
3273.63	649.5
3272.28	657.5
3270.94	632
3269.59	641
3268.24	688
3266.89	655
3265.54	669
3264.19	676
3262.84	726.5
3261.49	696.5
3260.14	705.5
3258.79	683.5
3257.44	699
3256.08	729.5
3254.73	719
3253.38	727
3252.03	721
3250.67	777
3249.32	785
3247.96	821.5
3246.61	786
3245.26	854.5
3243.9	846
3242.54	839.5
3241.19	901
3239.83	899.5
3238.48	941
3237.12	953.5
3235.76	948
3234.41	997
3233.05	992.5
3231.69	1063
3230.33	1055.5
3228.97	1095.5
3227.61	1102.5
3226.25	1140
3224.89	1176.5
3223.53	1171.5
3222.17	1225
3220.81	1290
3219.45	1274
3218.09	1306
3216.72	1329
3215.36	1304
3214	1363.5
3212.63	1392.5
3211.27	1405.5
3209.91	1381.5
3208.54	1459
3207.18	1425
3205.81	1462.5
3204.45	1455
3203.08	1489
3201.71	1464.5
3200.35	1543.5
3198.98	1505.5
3197.61	1464
3196.25	1525
3194.88	1496.5
3193.51	1530
3192.14	1545
3190.77	1561.5
3189.4	1578.5
3188.03	1511
3186.66	1573
3185.29	1582
3183.92	1556.5
3182.55	1606
3181.18	1614.5
3179.81	1601
3178.44	1627
3177.06	1619.5
3175.69	1620
3174.32	1616
3172.94	1677.5
3171.57	1682
3170.2	1711.5
3168.82	1688.5
3167.45	1681
3166.07	1734.5
3164.69	1719.5
3163.32	1750
3161.94	1736
3160.56	1746
3159.19	1775.5
3157.81	1794.5
3156.43	1814
3155.05	1797
3153.67	1818.5
3152.3	1904.5
3150.92	1870.5
3149.54	1866.5
3148.16	1868.5
3146.78	1900
3145.4	1940.5
3144.01	1947
3142.63	1957
3141.25	1962
3139.87	2004.5
3138.49	2010
3137.1	2020
3135.72	1996
3134.34	2042.5
3132.95	2023.5
3131.57	2056
3130.18	2028
3128.8	2084.5
3127.41	2092
3126.03	2087
3124.64	2066.5
3123.25	2145.5
3121.87	2114.5
3120.48	2140
3119.09	2191
3117.7	2192.5
3116.32	2141
3114.93	2180
3113.54	2158
3112.15	2202
3110.76	2203
3109.37	2252.5
3107.98	2259
3106.59	2264.5
3105.2	2281.5
3103.8	2295
3102.41	2304
3101.02	2309.5
3099.63	2314.5
3098.23	2332
3096.84	2334
3095.45	2353.5
3094.05	2374.5
3092.66	2369.5
3091.26	2284.5
3089.87	2424
3088.47	2364.5
3087.08	2350
3085.68	2367.5
3084.28	2408.5
3082.89	2434.5
3081.49	2408.5
3080.09	2435.5
3078.69	2384.5
3077.3	2421
3075.9	2455
3074.5	2425
3073.1	2492
3071.7	2478.5
3070.3	2488
3068.9	2495.5
3067.5	2540
3066.09	2558
3064.69	2538
3063.29	2523.5
3061.89	2535
3060.48	2479
3059.08	2521.5
3057.68	2488
3056.27	2540.5
3054.87	2588
3053.46	2511
3052.06	2558
3050.65	2600
3049.25	2563
3047.84	2554
3046.44	2609.5
3045.03	2581
3043.62	2655.5
3042.21	2615.5
3040.81	2631
3039.4	2607
3037.99	2647.5
3036.58	2663.5
3035.17	2680
3033.76	2627.5
3032.35	2670.5
3030.94	2631
3029.53	2665
3028.12	2688
3026.71	2631
3025.29	2633.5
3023.88	2681
3022.47	2766
3021.06	2734
3019.64	2701.5
3018.23	2658
3016.82	2728.5
3015.4	2734
3013.99	2694
3012.57	2792.5
3011.15	2771.5
3009.74	2746
3008.32	2738.5
3006.91	2795.5
3005.49	2762.5
3004.07	2765
3002.65	2796
3001.24	2828
2999.82	2821
2998.4	2797.5
2996.98	2827.5
2995.56	2760
2994.14	2790
2992.72	2821
2991.3	2874
2989.88	2891.5
2988.46	2826.5
2987.03	2911
2985.61	2914.5
2984.19	2903
2982.77	2958.5
2981.34	2992
2979.92	2940
2978.49	2952
2977.07	2955
2975.65	2986
2974.22	2999
2972.79	3038.5
2971.37	3041.5
2969.94	3085.5
2968.52	3084
2967.09	3113.5
2965.66	3143.5
2964.23	3143.5
2962.81	3131
2961.38	3155
2959.95	3180
2958.52	3167
2957.09	3185.5
2955.66	3183
2954.23	3241
2952.8	3225.5
2951.37	3215
2949.94	3295.5
2948.5	3236
2947.07	3240
2945.64	3259
2944.21	3253
2942.77	3293.5
2941.34	3333.5
2939.91	3336
2938.47	3342
2937.04	3366
2935.6	3340
2934.17	3366.5
2932.73	3393
2931.29	3401.5
2929.86	3347
2928.42	3403
2926.98	3439
2925.55	3469
2924.11	3472
2922.67	3460
2921.23	3405
2919.79	3478
2918.35	3490
2916.91	3477.5
2915.47	3501
2914.03	3528
2912.59	3427
2911.15	3560.5
2909.71	3533.5
2908.26	3530.5
2906.82	3511.5
2905.38	3573
2903.94	3555.5
2902.49	3545
2901.05	3588.5
2899.6	3583
2898.16	3650
2896.71	3620
2895.27	3571
2893.82	3593
2892.38	3600
2890.93	3579
2889.48	3622
2888.03	3643
2886.59	3637.5
2885.14	3593.5
2883.69	3579
2882.24	3646
2880.79	3626
2879.34	3615.5
2877.89	3599
2876.44	3649.5
2874.99	3663
2873.54	3593.5
2872.09	3639
2870.64	3605.5
2869.18	3630.5
2867.73	3664
2866.28	3647
2864.83	3647
2863.37	3643
2861.92	3719
2860.46	3630
2859.01	3658.5
2857.55	3691
2856.1	3679
2854.64	3638.5
2853.19	3645.5
2851.73	3698
2850.27	3728.5
2848.81	3617
2847.36	3673.5
2845.9	3603
2844.44	3672
2842.98	3614.5
2841.52	3667.5
2840.06	3646.5
2838.6	3584.5
2837.14	3519
2835.68	3497
2834.22	3517.5
2832.76	3513
2831.3	3513
2829.83	3506
2828.37	3463.5
2826.91	3484.5
2825.44	3512
2823.98	3464
2822.52	3514.5
2821.05	3411.5
2819.59	3495
2818.12	3464
2816.66	3436.5
2815.19	3422
2813.72	3397.5
2812.26	3422
2810.79	3405
2809.32	3387
2807.85	3401.5
2806.38	3358
2804.92	3350.5
2803.45	3339.5
2801.98	3349
2800.51	3354
2799.04	3323
2797.57	3365.5
2796.1	3323
2794.62	3352.5
2793.15	3292
2791.68	3308.5
2790.21	3356.5
2788.73	3313.5
2787.26	3324
2785.79	3255
2784.31	3302
2782.84	3361.5
2781.36	3335.5
2779.89	3316.5
2778.41	3369.5
2776.94	3279
2775.46	3347.5
2773.99	3373
2772.51	3362
2771.03	3280
2769.55	3287
2768.07	3317.5
2766.6	3304.5
2765.12	3306.5
2763.64	3292.5
2762.16	3322
2760.68	3349.5
2759.2	3340
2757.72	3285
2756.24	3303.5
2754.75	3306.5
2753.27	3306.5
2751.79	3296.5
2750.31	3313.5
2748.82	3331
2747.34	3319.5
2745.86	3258
2744.37	3338.5
2742.89	3323
2741.4	3308.5
2739.92	3319
2738.43	3269.5
2736.94	3272
2735.46	3311.5
2733.97	3315.5
2732.48	3345.5
2731	3325
2729.51	3304
2728.02	3279
2726.53	3269.5
2725.04	3409
2723.55	3347
2722.06	3349.5
2720.57	3298.5
2719.08	3264
2717.59	3340.5
2716.1	3328
2714.61	3284
2713.11	3303.5
2711.62	3308
2710.13	3294.5
2708.64	3288.5
2707.14	3313.5
2705.65	3304.5
2704.15	3282.5
2702.66	3258.5
2701.16	3242
2699.67	3209.5
2698.17	3250.5
2696.67	3249
2695.18	3236.5
2693.68	3258.5
2692.18	3220
2690.69	3177
2689.19	3234
2687.69	3218
2686.19	3201
2684.69	3180.5
2683.19	3185.5
2681.69	3222
2680.19	3144.5
2678.69	3114
2677.19	3173.5
2675.68	3163
2674.18	3170.5
2672.68	3094
2671.18	3152
2669.67	3112
2668.17	3113.5
2666.66	3129
2665.16	3150
2663.66	3094.5
2662.15	3153
2660.64	3089
2659.14	3149
2657.63	3027.5
2656.13	3076.5
2654.62	3069.5
2653.11	3101
2651.6	3122.5
2650.09	3078.5
2648.58	3141
2647.08	3077
2645.57	3097.5
2644.06	3094.5
2642.55	3139.5
2641.04	3048.5
2639.52	2997.5
2638.01	3061
2636.5	3119.5
2634.99	3037.5
2633.48	3014
2631.96	3049
2630.45	3019
2628.94	3049
2627.42	2991
2625.91	3033.5
2624.39	2980.5
2622.88	2988.5
2621.36	3000.5
2619.85	3029.5
2618.33	3046
2616.81	3088
2615.3	3034
2613.78	2986.5
2612.26	2978
2610.74	2992.5
2609.22	2967.5
2607.7	2946
2606.18	2911
2604.66	2922.5
2603.14	2943
2601.62	2927
2600.1	2927
2598.58	2946.5
2597.06	2950.5
2595.54	2889
2594.01	2908
2592.49	2876.5
2590.97	2926.5
2589.44	2902.5
2587.92	2893
2586.39	2852
2584.87	2842.5
2583.34	2839.5
2581.82	2836.5
2580.29	2818.5
2578.76	2832
2577.24	2839.5
2575.71	2864
2574.18	2854
2572.65	2844.5
2571.13	2790
2569.6	2773
2568.07	2840
2566.54	2794.5
2565.01	2825.5
2563.48	2812.5
2561.95	2858
2560.42	2817.5
2558.88	2791
2557.35	2785.5
2555.82	2819.5
2554.29	2779.5
2552.75	2771.5
2551.22	2777
2549.69	2716.5
2548.15	2747.5
2546.62	2714
2545.08	2731.5
2543.55	2717
2542.01	2729.5
2540.47	2748
2538.94	2735
2537.4	2724
2535.86	2701
2534.33	2678.5
2532.79	2670.5
2531.25	2665.5
2529.71	2648
2528.17	2695.5
2526.63	2681
2525.09	2630.5
2523.55	2634.5
2522.01	2656
2520.47	2583.5
2518.92	2635
2517.38	2615.5
2515.84	2593
2514.3	2565
2512.75	2593
2511.21	2575
2509.67	2566.5
2508.12	2588.5
2506.58	2555.5
2505.03	2574
2503.49	2603.5
2501.94	2537
2500.39	2479.5
2498.85	2503.5
2497.3	2463.5
2495.75	2482
2494.2	2511
2492.65	2483.5
2491.11	2495
2489.56	2469
2488.01	2431
2486.46	2471
2484.91	2448.5
2483.36	2489.5
2481.8	2486.5
2480.25	2448
2478.7	2379.5
2477.15	2403
2475.6	2354.5
2474.04	2373.5
2472.49	2369.5
2470.93	2398.5
2469.38	2434.5
2467.83	2379.5
2466.27	2327.5
2464.71	2387
2463.16	2309
2461.6	2355.5
2460.05	2333.5
2458.49	2332
2456.93	2345
2455.37	2299
2453.81	2269.5
2452.26	2290
2450.7	2335.5
2449.14	2279.5
2447.58	2289.5
2446.02	2176.5
2444.46	2241
2442.9	2234.5
2441.33	2184.5
2439.77	2268
2438.21	2196.5
2436.65	2207
2435.08	2207.5
2433.52	2164
2431.96	2196
2430.39	2201
2428.83	2216
2427.26	2180
2425.7	2163.5
2424.13	2143.5
2422.56	2139.5
2421	2170.5
2419.43	2123.5
2417.86	2177
2416.3	2120.5
2414.73	2110
2413.16	2134.5
2411.59	2091
2410.02	2061.5
2408.45	2092
2406.88	2075
2405.31	2077
2403.74	2102
2402.17	2071
2400.6	2078
2399.02	2055.5
2397.45	2045
2395.88	2053.5
2394.3	2012
2392.73	2052
2391.16	2023.5
2389.58	2005.5
2388.01	2029.5
2386.43	2062
2384.86	2049
2383.28	1990.5
2381.7	1989
2380.13	1993.5
2378.55	2027.5
2376.97	2018
2375.39	2008.5
2373.81	2011.5
2372.23	1938
2370.65	2003.5
2369.07	2003
2367.49	1976.5
2365.91	1955.5
2364.33	1927.5
2362.75	1971.5
2361.17	1907
2359.59	1954.5
2358.01	1953
2356.42	1937
2354.84	1907.5
2353.25	1951
2351.67	1900.5
2350.09	1919.5
2348.5	1897
2346.92	1897
2345.33	1893.5
2343.74	1895
2342.16	1915.5
2340.57	1911
2338.98	1889
2337.39	1851
2335.81	1877
2334.22	1900.5
2332.63	1859.5
2331.04	1875
2329.45	1872.5
2327.86	1874
2326.27	1861.5
2324.68	1851
2323.09	1871.5
2321.49	1868
2319.9	1845.5
2318.31	1826.5
2316.72	1864
2315.12	1872
2313.53	1789.5
2311.93	1829.5
2310.34	1829.5
2308.74	1837.5
2307.15	1799
2305.55	1805.5
2303.96	1772
2302.36	1761
2300.76	1772
2299.17	1780.5
2297.57	1788
2295.97	1780
2294.37	1762
2292.77	1706
2291.17	1729.5
2289.57	1745.5
2287.97	1716.5
2286.37	1733.5
2284.77	1706
2283.17	1758.5
2281.57	1710
2279.96	1693
2278.36	1656
2276.76	1692
2275.15	1672
2273.55	1614
2271.95	1626
2270.34	1615.5
2268.74	1658
2267.13	1659.5
2265.52	1649.5
2263.92	1629.5
2262.31	1615
2260.7	1606
2259.1	1638.5
2257.49	1625.5
2255.88	1592.5
2254.27	1623.5
2252.66	1610.5
2251.05	1545
2249.44	1584.5
2247.83	1610
2246.22	1567
2244.61	1561
2243	1610.5
2241.39	1566.5
2239.77	1561
2238.16	1576.5
2236.55	1556
2234.93	1580
2233.32	1540.5
2231.7	1526.5
2230.09	1522
2228.47	1564.5
2226.86	1485.5
2225.24	1507.5
2223.63	1499
2222.01	1515.5
2220.39	1469.5
2218.77	1480
2217.16	1475.5
2215.54	1471.5
2213.92	1468
2212.3	1485.5
2210.68	1464.5
2209.06	1454.5
2207.44	1421.5
2205.82	1450.5
2204.19	1456
2202.57	1404.5
2200.95	1403.5
2199.33	1466.5
2197.7	1400
2196.08	1371.5
2194.46	1390.5
2192.83	1396
2191.21	1389
2189.58	1377.5
2187.96	1355.5
2186.33	1365
2184.7	1370
2183.08	1350
2181.45	1378
2179.82	1371
2178.19	1338
2176.57	1349
2174.94	1378.5
2173.31	1358
2171.68	1327
2170.05	1337.5
2168.42	1358.5
2166.79	1324
2165.16	1319
2163.52	1320.5
2161.89	1302.5
2160.26	1315
2158.63	1359
2156.99	1328
2155.36	1329.5
2153.73	1282
2152.09	1267.5
2150.46	1296.5
2148.82	1311.5
2147.18	1296
2145.55	1285
2143.91	1295
2142.27	1288
2140.64	1225
2139	1262.5
2137.36	1311.5
2135.72	1220
2134.08	1264
2132.44	1211
2130.8	1261
2129.16	1188.5
2127.52	1217
2125.88	1203.5
2124.24	1184
2122.6	1182.5
2120.95	1180.5
2119.31	1170.5
2117.67	1155
2116.02	1165.5
2114.38	1158.5
2112.74	1190.5
2111.09	1136
2109.45	1143
2107.8	1139.5
2106.15	1125.5
2104.51	1136
2102.86	1136
2101.21	1109
2099.56	1125
2097.92	1089.5
2096.27	1141
2094.62	1129
2092.97	1103.5
2091.32	1120
2089.67	1140.5
2088.02	1106.5
2086.37	1084.5
2084.72	1080
2083.06	1098.5
2081.41	1080
2079.76	1080
2078.1	1081
2076.45	1105.5
2074.8	1039.5
2073.14	1043.5
2071.49	1109.5
2069.83	1016.5
2068.18	1041
2066.52	1066
2064.86	1093
2063.21	1047
2061.55	1054
2059.89	1020
2058.23	1022
2056.57	1032
2054.92	1023.5
2053.26	994.5
2051.6	1044
2049.94	1033.5
2048.27	1017.5
2046.61	1007
2044.95	1034
2043.29	996.5
2041.63	1008.5
2039.97	1019.5
2038.3	1028.5
2036.64	1007.5
2034.97	982.5
2033.31	1001
2031.64	984.5
2029.98	1009
2028.31	978
2026.65	986
2024.98	969
2023.31	933
2021.65	981
2019.98	971
2018.31	976.5
2016.64	936
2014.97	956
2013.3	927
2011.63	941
2009.96	912
2008.29	942.5
2006.62	927.5
2004.95	936.5
2003.28	880
2001.6	924
1999.93	908
1998.26	924.5
1996.58	910.5
1994.91	872
1993.24	892.5
1991.56	891.5
1989.89	919
1988.21	877
1986.53	888.5
1984.86	881
1983.18	898
1981.5	883.5
1979.82	909
1978.15	859
1976.47	854.5
1974.79	884.5
1973.11	883
1971.43	866.5
1969.75	882
1968.07	870
1966.38	852.5
1964.7	873
1963.02	883.5
1961.34	873.5
1959.66	828
1957.97	840
1956.29	834
1954.6	853
1952.92	858.5
1951.23	844.5
1949.55	795
1947.86	818.5
1946.18	844
1944.49	821
1942.8	823.5
1941.11	817
1939.43	810
1937.74	812
1936.05	812
1934.36	819
1932.67	809
1930.98	752
1929.29	777
1927.6	748.5
1925.91	747
1924.21	738
1922.52	743
1920.83	805.5
1919.14	777.5
1917.44	792
1915.75	758.5
1914.05	742.5
1912.36	753
1910.66	760
1908.97	729.5
1907.27	740
1905.58	713
1903.88	705
1902.18	708
1900.48	742.5
1898.79	727
1897.09	723
1895.39	679
1893.69	739.5
1891.99	712.5
1890.29	671.5
1888.59	703.5
1886.89	673
1885.18	683.5
1883.48	685.5
1881.78	685.5
1880.08	670
1878.37	697
1876.67	651
1874.96	661
1873.26	697.5
1871.55	660
1869.85	650
1868.14	661
1866.44	677
1864.73	653.5
1863.02	638.5
1861.32	657.5
1859.61	629
1857.9	638.5
1856.19	642.5
1854.48	639
1852.77	617.5
1851.06	634.5
1849.35	661
1847.64	619
1845.93	631.5
1844.21	642.5
1842.5	601.5
1840.79	611
1839.08	640.5
1837.36	608
1835.65	625.5
1833.93	600
1832.22	629
1830.5	610.5
1828.79	608
1827.07	590
1825.36	627
1823.64	618.5
1821.92	603
1820.2	585
1818.48	587.5
1816.77	549
1815.05	591
1813.33	588.5
1811.61	539
1809.89	582.5
1808.16	571
1806.44	563
1804.72	544
1803	586.5
1801.28	560
1799.55	560.5
1797.83	585
1796.11	560.5
1794.38	588.5
1792.66	568
1790.93	554.5
1789.21	569
1787.48	550
1785.75	531
1784.03	546
1782.3	549.5
1780.57	530
1778.84	538.5
1777.11	510
1775.38	551
1773.66	538
1771.93	536.5
1770.19	511.5
1768.46	532.5
1766.73	531
1765	529
1763.27	527
1761.54	553
1759.8	530.5
1758.07	552.5
1756.34	568.5
1754.6	553
1752.87	560.5
1751.13	562.5
1749.4	550
1747.66	591.5
1745.92	566
1744.19	564.5
1742.45	559
1740.71	588
1738.97	563
1737.23	546.5
1735.49	549
1733.75	509
1732.01	513.5
1730.27	505.5
1728.53	519.5
1726.79	504.5
1725.05	480
1723.31	518
1721.57	486
1719.82	501
1718.08	507.5
1716.34	514.5
1714.59	442
1712.85	511
1711.1	451
1709.36	476
1707.61	478
1705.86	451.5
1704.12	483.5
1702.37	476.5
1700.62	434
1698.87	478.5
1697.12	493
1695.37	508.5
1693.62	461.5
1691.87	446.5
1690.12	460
1688.37	467.5
1686.62	443.5
1684.87	461.5
1683.12	460
1681.36	456
1679.61	449.5
1677.86	484.5
1676.1	462.5
1674.35	443
1672.59	483.5
1670.84	475.5
1669.08	503.5
1667.33	539.5
1665.57	544
1663.81	562
1662.06	603.5
1660.3	628.5
1658.54	684.5
1656.78	674.5
1655.02	619
1653.26	624.5
1651.5	579
1649.74	575
1647.98	539
1646.22	486.5
1644.46	459.5
1642.7	497.5
1640.93	443
1639.17	464.5
1637.41	428.5
1635.64	432.5
1633.88	400
1632.11	431.5
1630.35	390
1628.58	380
1626.81	413
1625.05	420
1623.28	405.5
1621.51	397.5
1619.75	434.5
1617.98	391
1616.21	392
1614.44	390
1612.67	390
1610.9	374
1609.13	387.5
1607.36	386.5
1605.58	383.5
1603.81	402.5
1602.04	384.5
1600.27	382
1598.49	405.5
1596.72	363
1594.95	400
1593.17	363.5
1591.4	379
1589.62	390.5
1587.84	373.5
1586.07	369
1584.29	351
1582.51	350
1580.74	375.5
1578.96	404.5
1577.18	365
1575.4	358
1573.62	371
1571.84	411
1570.06	402
1568.28	386
1566.5	365.5
1564.72	361
1562.93	391
1561.15	333
1559.37	364
1557.58	375
1555.8	356.5
1554.02	371
1552.23	361
1550.45	335
1548.66	379.5
1546.87	318
1545.09	350.5
1543.3	340
1541.51	359.5
1539.72	370.5
1537.94	353
1536.15	354
1534.36	356.5
1532.57	349
1530.78	335
1528.99	352.5
1527.2	333
1525.4	355
1523.61	325.5
1521.82	340
1520.03	305
1518.23	343.5
1516.44	359
1514.65	362
1512.85	344.5
1511.06	376.5
1509.26	358
1507.46	338
1505.67	329
1503.87	352
1502.07	356
1500.28	348.5
1498.48	368
1496.68	369.5
1494.88	361.5
1493.08	383
1491.28	378.5
1489.48	367
1487.68	380.5
1485.88	362
1484.08	391
1482.27	421
1480.47	406
1478.67	415
1476.86	467.5
1475.06	459
1473.25	478.5
1471.45	521
1469.64	560
1467.84	573
1466.03	633
1464.23	648
1462.42	684
1460.61	757.5
1458.8	735
1456.99	746.5
1455.18	774
1453.37	811
1451.56	785
1449.75	859.5
1447.94	868
1446.13	908
1444.32	894
1442.51	936.5
1440.7	961
1438.88	936
1437.07	893.5
1435.26	821
1433.44	742
1431.63	634
1429.81	624
1427.99	570.5
1426.18	520.5
1424.36	501
1422.54	471
1420.73	468.5
1418.91	408
1417.09	418
1415.27	423
1413.45	391
1411.63	397
1409.81	373.5
1407.99	368
1406.17	350
1404.35	338
1402.53	337
1400.7	349
1398.88	354
1397.06	307
1395.23	337.5
1393.41	302
1391.58	324
1389.76	295
1387.93	345
1386.11	328
1384.28	344
1382.45	347
1380.62	328
1378.8	350.5
1376.97	345
1375.14	329
1373.31	328
1371.48	351
1369.65	333
1367.82	344
1365.99	324.5
1364.16	373.5
1362.32	323
1360.49	337
1358.66	346.5
1356.82	345
1354.99	354
1353.16	330
1351.32	319
1349.48	358
1347.65	343
1345.81	343
1343.98	351
1342.14	339
1340.3	334
1338.46	321
1336.62	340
1334.79	321
1332.95	365.5
1331.11	385
1329.27	399.5
1327.42	397
1325.58	448.5
1323.74	466.5
1321.9	444
1320.06	489.5
1318.21	477
1316.37	523.5
1314.53	547
1312.68	604
1310.84	589
1308.99	677.5
1307.15	644
1305.3	717
1303.45	728.5
1301.61	729.5
1299.76	730
1297.91	702
1296.06	672
1294.21	581
1292.36	569.5
1290.51	535.5
1288.66	503
1286.81	455
1284.96	469
1283.11	455
1281.26	481
1279.4	459
1277.55	460.5
1275.7	489.5
1273.84	496
1271.99	456
1270.13	474
1268.28	479
1266.42	476.5
1264.56	490
1262.71	490
1260.85	486.5
1258.99	440
1257.13	437.5
1255.27	459.5
1253.41	427
1251.56	376
1249.7	353
1247.83	367.5
1245.97	386
1244.11	341
1242.25	324
1240.39	358
1238.52	310
1236.66	345.5
1234.8	336
1232.93	317
1231.07	303.5
1229.2	318
1227.34	277.5
1225.47	287
1223.6	304
1221.74	271
1219.87	300
1218	281
1216.13	289
1214.26	256.5
1212.39	291
1210.53	279.5
1208.65	270
1206.78	247
1204.91	248
1203.04	268.5
1201.17	264
1199.3	287
1197.42	293.5
1195.55	289.5
1193.68	279
1191.8	250
1189.93	257
1188.05	271
1186.17	266
1184.3	257
1182.42	249
1180.54	265
1178.67	289.5
1176.79	272
1174.91	278
1173.03	243
1171.15	292
1169.27	294
1167.39	285
1165.51	284.5
1163.63	265
1161.75	259
1159.86	285
1157.98	262
1156.1	303
1154.21	295
1152.33	284
1150.44	256
1148.56	274.5
1146.67	297
1144.79	290
1142.9	284
1141.01	289
1139.12	275
1137.24	294.5
1135.35	312.5
1133.46	352
1131.57	346
1129.68	352
1127.79	376.5
1125.9	378.5
1124.01	354.5
1122.12	368
1120.22	367
1118.33	366
1116.44	309
1114.54	369.5
1112.65	343
1110.75	337
1108.86	377.5
1106.96	397
1105.07	379
1103.17	421.5
1101.27	419.5
1099.38	455
1097.48	436.5
1095.58	450
1093.68	501.5
1091.78	516.5
1089.88	504
1087.98	508
1086.08	523
1084.18	561.5
1082.28	558
1080.38	493
1078.47	539
1076.57	521.5
1074.67	496
1072.76	517
1070.86	529.5
1068.95	511
1067.05	517
1065.14	522
1063.24	529.5
1061.33	495
1059.42	500
1057.51	434
1055.6	430.5
1053.7	404.5
1051.79	391
1049.88	387
1047.97	380
1046.06	386
1044.14	351
1042.23	400.5
1040.32	374
1038.41	394
1036.5	382.5
1034.58	361
1032.67	401.5
1030.75	398
1028.84	362.5
1026.92	365
1025.01	389
1023.09	360
1021.17	387.5
1019.26	386
1017.34	384.5
1015.42	359
1013.5	360
1011.58	376
1009.66	376
1007.74	366
1005.82	363
1003.9	378
1001.98	328
1000.06	340
998.134	344
996.212	331
994.288	320
992.364	358
990.44	404
988.515	394
986.589	415.5
984.663	402
982.737	401.5
980.81	412
978.883	421.5
976.955	447
975.027	487.5
973.098	478
971.169	462
969.239	475
967.308	464
965.378	466
963.447	470
961.516	476
959.583	464
957.65	493
955.718	484
953.784	482.5
951.85	499
949.916	470
947.981	513
946.045	510
944.109	489
942.173	498
940.236	511
938.298	536.5
936.36	499.5
934.422	496
932.484	521.5
930.544	481
928.604	428
926.664	450
924.724	413
922.782	410
920.84	389
918.898	400.5
916.955	429.5
915.012	398
913.068	398
911.124	412
909.18	401
907.235	423
905.289	425.5
903.343	435
901.397	436
899.45	437
897.502	425.5
895.554	447
893.605	458
891.657	452.5
889.707	479
887.758	494.5
885.807	437
883.856	423
881.905	487
879.953	485
878.001	489.5
876.048	499
874.094	493.5
872.14	507
870.186	527.5
868.232	487.5
866.276	499
864.321	498
862.365	470
860.408	479.5
858.451	478
856.493	475.5
854.535	438
852.576	468.5
850.617	483
848.658	471
846.698	414
844.737	493.5
842.776	482.5
840.814	421
838.852	455
836.89	424
834.927	416
832.963	396
830.999	404
829.035	391
827.07	359
825.105	344
823.139	364
821.172	335
819.206	334
817.238	338.5
815.27	338
813.301	350
811.333	336.5
809.363	323
807.394	286
805.424	303.5
803.453	301.5
801.482	282
799.509	277.5
797.538	283.5
795.565	263.5
793.592	246.5
791.618	259
789.643	224
787.669	255.5
785.693	276
783.718	268
781.742	251
779.765	258.5
777.788	249
775.811	252.5
773.832	272
771.853	245
769.875	261
767.895	265.5
765.915	237
763.934	257
761.953	230
759.972	266.5
757.99	219
756.007	241
754.024	239.5
752.041	229.5
750.056	240
748.072	251.5
746.087	256
744.102	230.5
742.116	233
740.13	250.5
738.143	248
736.155	254
734.167	259
732.179	278
730.19	264.5
728.2	236.5
726.21	279
724.22	277
722.229	256
720.237	224
718.246	268
716.253	263
714.26	244
712.267	236.5
710.273	250
708.279	229.5
706.284	211
704.289	225
702.293	221
700.296	263
698.3	240
696.303	245.5
694.305	231
692.307	221
690.307	249
688.308	212
686.309	225
684.308	235
682.308	210
680.306	241
678.304	257.5
676.302	251
674.3	265.5
672.296	228
670.293	282
668.289	240
666.284	225
664.278	231.5
662.273	251
660.266	238
658.26	236
656.252	252
654.244	271.5
652.237	221
650.227	256
648.218	258.5
646.209	250
644.198	270.5
642.188	259
640.177	266
638.165	282.5
636.153	250
634.14	235
632.128	275.5
630.113	265
628.099	286.5
626.085	267
624.07	264
622.054	283.5
620.038	282
618.021	289.5
616.004	273
613.986	286
611.968	271
609.949	275
607.93	286
605.911	275.5
603.891	308
601.87	317
599.848	294
597.827	296
595.805	288
593.782	306.5
591.759	225
589.735	263
587.711	287
585.687	283
583.661	270.5
581.636	274.5
579.609	253
577.583	275
575.555	257
573.527	263
571.5	307.5
569.471	258.5
567.441	248
565.412	294.5
563.382	286.5
561.351	275
559.32	258
557.289	297
555.257	330
553.223	316.5
551.19	307
549.157	304
547.122	364
545.088	337
543.053	356.5
541.017	406
538.981	400.5
536.943	450
534.907	590
532.869	746
530.831	981.5
528.792	1414
526.752	2272.5
524.713	3398
522.673	4345.5
520.632	4534.5
518.591	3741
516.549	2783
514.507	1866
512.464	1241
510.42	907.5
508.377	642.5
506.332	542.5
504.288	467.5
502.242	442
500.196	394
498.15	400
496.104	377.5
494.056	414.5
492.008	364.5
489.96	358
487.911	382
485.862	329
483.812	372
481.761	355
479.71	326.5
477.659	329
475.607	350
473.555	350
471.502	358
469.448	327
467.395	328
465.34	313.5
463.285	330
461.23	320
459.174	304
457.118	351.5
455.061	368.5
453.003	315.5
450.945	361.5
448.887	341.5
446.828	339
444.768	329.5
442.708	348.5
440.647	346.5
438.587	363
436.525	339
434.463	345
432.4	387.5
430.337	320
428.274	376.5
426.21	359.5
424.145	372
422.079	362
420.014	376
417.948	373
415.882	346
413.814	378.5
411.746	379
409.679	373
407.609	383
405.54	380
403.47	400.5
401.401	413
399.329	374
397.258	384
395.187	380.5
393.114	381
391.041	387.5
388.968	392
386.895	393
384.82	404
382.745	399
380.67	388
378.594	398.5
376.517	405.5
374.44	373
372.363	410
370.286	402.5
368.207	368.5
366.128	436
364.049	395
361.969	432
359.888	413
357.807	414.5
355.725	428.5
353.643	427
351.561	405.5
349.477	414
347.394	395
345.31	417.5
343.226	397
341.141	430.5
339.055	406
336.968	444
334.882	452
332.795	451
330.707	431
328.618	405
326.53	466
324.44	474.5
322.351	481
320.26	473
318.17	507
316.078	469
313.987	560
311.895	543
309.802	572
307.708	613
305.614	617
303.52	607.5
301.425	613
299.329	626
297.233	561
295.137	566
293.039	564
290.942	529
288.844	543
286.745	552
284.647	551
282.546	532.5
280.446	508.5
278.346	528
276.245	559.5
274.143	527
272.041	553
269.939	562
267.835	543
265.731	575
263.627	561
261.522	585.5
259.417	578.5
257.311	564
255.204	578
253.098	599
250.99	597.5
248.882	584
246.774	622
244.664	618.5
242.555	635.5
240.445	630
238.334	629
236.223	661
234.112	653.5
232	662.5
229.888	639
227.775	633
225.661	660.5
223.546	652
221.431	692
219.316	669
217.201	656.5
215.084	681
212.967	668
210.85	712
208.732	684
206.614	703
204.495	687
202.375	704
200.256	670
198.135	692.5
196.014	698
193.893	682
191.771	705.5
189.648	679
187.525	714.5
185.401	689
183.277	692.5
181.152	683.5
179.027	709
176.901	691
174.775	719
172.648	745.5
170.521	758.5
168.393	738.5
166.265	719
164.136	762.5
162.007	775.5
159.876	781.5
157.746	790
155.615	800
153.483	819
151.351	849
149.219	882.5
147.086	888
144.952	918
142.818	927.5
140.684	960.5
138.548	1001.5
136.413	1034.5
134.276	1043
132.139	1080
130.002	1122
127.864	1182.5
125.725	1220.5
123.587	1257.5
121.447	1310
119.307	1350
117.166	1403.5
115.026	1490
112.885	1503
110.743	1617
108.6	1611.5
106.456	1650
104.313	1708
102.169	1694.5
100.023	1645
97.8789	1556
95.7328	1396
93.5869	1309
91.4392	1105
89.2919	926.5
87.1447	730.5
84.9959	604.5
