3528.51	299
3527.23	292
3525.95	313
3524.67	306.5
3523.39	326
3522.1	318.5
3520.82	348
3519.54	326.5
3518.26	322
3516.97	334.5
3515.69	343
3514.4	340.5
3513.12	299
3511.84	293
3510.55	336.5
3509.26	339.5
3507.98	350
3506.69	316
3505.41	335.5
3504.12	363.5
3502.83	382
3501.54	347.5
3500.26	362
3498.97	361.5
3497.68	385
3496.39	381
3495.1	366
3493.81	401
3492.52	410.5
3491.23	377
3489.94	373.5
3488.65	388.5
3487.36	410
3486.07	407.5
3484.78	427
3483.49	432
3482.19	451
3480.9	423
3479.61	448.5
3478.31	431
3477.02	460
3475.73	425.5
3474.43	474
3473.14	472
3471.84	498
3470.54	504
3469.25	478.5
3467.95	475
3466.66	480
3465.36	494.5
3464.06	482
3462.76	459
3461.46	468
3460.17	527.5
3458.87	481.5
3457.57	522
3456.27	480.5
3454.97	533.5
3453.67	515
3452.37	541
3451.07	520
3449.77	516.5
3448.47	538.5
3447.16	555
3445.86	570
3444.56	568
3443.26	573.5
3441.95	589
3440.65	577
3439.35	600.5
3438.04	608
3436.74	600.5
3435.43	617
3434.13	628
3432.82	642.5
3431.52	685.5
3430.21	643.5
3428.9	674.5
3427.6	680
3426.29	677
3424.98	702.5
3423.67	694
3422.36	689
3421.06	739.5
3419.75	745
3418.44	748
3417.13	738
3415.82	758
3414.51	794
3413.2	790
3411.88	791.5
3410.57	772.5
3409.26	806
3407.95	802
3406.64	800
3405.32	830
3404.01	838.5
3402.7	840.5
3401.38	859.5
3400.07	828
3398.75	868.5
3397.44	871.5
3396.12	839
3394.81	851.5
3393.49	859.5
3392.18	877
3390.86	892.5
3389.54	872.5
3388.23	868
3386.91	932.5
3385.59	920.5
3384.27	927
3382.95	945.5
3381.63	968
3380.31	960
3378.99	973
3377.67	962.5
3376.35	968
3375.03	1007.5
3373.71	1002.5
3372.39	980
3371.07	1024
3369.75	1013
3368.42	1078.5
3367.1	1028.5
3365.78	1053
3364.45	1055
3363.13	1059.5
3361.81	1062.5
3360.48	1100
3359.16	1057
3357.83	1084
3356.51	1080.5
3355.18	1072
3353.85	1092
3352.53	1103
3351.2	1121
3349.87	1113
3348.54	1144.5
3347.22	1132
3345.89	1114
3344.56	1145
3343.23	1136
3341.9	1101
3340.57	1112.5
3339.24	1144.5
3337.91	1136.5
3336.58	1142
3335.25	1153.5
3333.92	1171
3332.58	1156.5
3331.25	1172
3329.92	1195.5
3328.59	1189
3327.25	1175
3325.92	1220
3324.58	1160
3323.25	1212.5
3321.92	1159.5
3320.58	1224
3319.25	1258.5
3317.91	1244
3316.57	1241
3315.24	1218.5
3313.9	1232.5
3312.56	1231
3311.23	1276.5
3309.89	1290
3308.55	1274
3307.21	1279.5
3305.87	1280.5
3304.53	1271.5
3303.19	1323.5
3301.85	1284
3300.51	1326.5
3299.17	1321.5
3297.83	1308
3296.49	1331.5
3295.15	1330.5
3293.81	1342.5
3292.46	1315
3291.12	1308
3289.78	1348
3288.43	1365.5
3287.09	1350.5
3285.75	1348
3284.4	1368.5
3283.06	1315.5
3281.71	1387.5
3280.37	1334.5
3279.02	1385.5
3277.67	1403.5
3276.33	1411.5
3274.98	1424
3273.63	1401
3272.28	1426.5
3270.94	1419.5
3269.59	1459
3268.24	1460
3266.89	1519
3265.54	1468.5
3264.19	1499
3262.84	1514
3261.49	1564
3260.14	1569.5
3258.79	1605
3257.44	1619.5
3256.08	1637
3254.73	1676
3253.38	1694.5
3252.03	1743
3250.67	1773
3249.32	1815
3247.96	1848
3246.61	1906
3245.26	1943
3243.9	2074
3242.54	2054
3241.19	2120
3239.83	2162
3238.48	2230.5
3237.12	2314.5
3235.76	2329
3234.41	2396.5
3233.05	2456
3231.69	2496.5
3230.33	2550.5
3228.97	2651
3227.61	2665.5
3226.25	2732.5
3224.89	2763
3223.53	2800
3222.17	2848.5
3220.81	2879
3219.45	2936
3218.09	2963.5
3216.72	2953
3215.36	3026.5
3214	3057
3212.63	3034
3211.27	3096.5
3209.91	3097.5
3208.54	3152.5
3207.18	3153.5
3205.81	3179
3204.45	3171.5
3203.08	3198
3201.71	3245.5
3200.35	3215
3198.98	3253
3197.61	3214.5
3196.25	3281
3194.88	3242
3193.51	3278
3192.14	3339
3190.77	3314
3189.4	3338
3188.03	3335
3186.66	3344
3185.29	3334.5
3183.92	3395.5
3182.55	3414
3181.18	3458.5
3179.81	3422
3178.44	3475.5
3177.06	3437
3175.69	3520
3174.32	3559
3172.94	3606.5
3171.57	3598.5
3170.2	3642.5
3168.82	3689.5
3167.45	3689
3166.07	3728.5
3164.69	3742
3163.32	3779.5
3161.94	3848
3160.56	3818
3159.19	3826
3157.81	3859.5
3156.43	3892
3155.05	3985.5
3153.67	3936.5
3152.3	4009
3150.92	4078
3149.54	4090.5
3148.16	4102.5
3146.78	4091
3145.4	4171
3144.01	4189
3142.63	4181.5
3141.25	4212.5
3139.87	4224
3138.49	4263.5
3137.1	4339.5
3135.72	4269.5
3134.34	4348
3132.95	4408.5
3131.57	4370
3130.18	4427
3128.8	4448.5
3127.41	4460
3126.03	4559
3124.64	4574.5
3123.25	4575.5
3121.87	4659
3120.48	4670.5
3119.09	4616.5
3117.7	4715.5
3116.32	4721
3114.93	4659
3113.54	4755.5
3112.15	4750.5
3110.76	4815.5
3109.37	4828.5
3107.98	4813
3106.59	4913
3105.2	4906
3103.8	4885
3102.41	4936
3101.02	4939.5
3099.63	4888.5
3098.23	4947
3096.84	5024
3095.45	5000
3094.05	4965
3092.66	5028.5
3091.26	5061
3089.87	5109
3088.47	5163
3087.08	5130
3085.68	5128.5
3084.28	5137.5
3082.89	5214
3081.49	5191.5
3080.09	5230
3078.69	5172
3077.3	5215
3075.9	5214.5
3074.5	5159
3073.1	5148
3071.7	5243
3070.3	5294
3068.9	5285.5
3067.5	5305
3066.09	5346.5
3064.69	5259.5
3063.29	5294
3061.89	5357.5
3060.48	5333
3059.08	5372
3057.68	5355.5
3056.27	5335
3054.87	5354.5
3053.46	5379.5
3052.06	5380.5
3050.65	5413
3049.25	5417.5
3047.84	5462
3046.44	5510
3045.03	5525.5
3043.62	5538
3042.21	5551.5
3040.81	5544.5
3039.4	5495
3037.99	5601
3036.58	5625.5
3035.17	5686
3033.76	5689
3032.35	5611
3030.94	5671
3029.53	5718
3028.12	5724
3026.71	5673
3025.29	5655.5
3023.88	5619
3022.47	5658
3021.06	5685
3019.64	5724.5
3018.23	5732
3016.82	5717
3015.4	5765
3013.99	5837
3012.57	5716.5
3011.15	5819.5
3009.74	5789.5
3008.32	5789
3006.91	5878.5
3005.49	5859.5
3004.07	5839.5
3002.65	5888.5
3001.24	5872
2999.82	5894.5
2998.4	5898.5
2996.98	5963
2995.56	6011.5
2994.14	6004
2992.72	6073
2991.3	6103
2989.88	6155.5
2988.46	6183
2987.03	6156
2985.61	6175.5
2984.19	6294.5
2982.77	6201
2981.34	6335.5
2979.92	6382
2978.49	6341
2977.07	6367.5
2975.65	6476.5
2974.22	6508
2972.79	6533.5
2971.37	6565.5
2969.94	6487.5
2968.52	6493
2967.09	6575
2965.66	6591
2964.23	6623
2962.81	6595.5
2961.38	6610
2959.95	6661
2958.52	6656.5
2957.09	6703.5
2955.66	6713
2954.23	6721
2952.8	6758
2951.37	6707
2949.94	6754
2948.5	6824.5
2947.07	6755.5
2945.64	6826.5
2944.21	6768
2942.77	6764.5
2941.34	6810
2939.91	6911.5
2938.47	6873
2937.04	6933.5
2935.6	6889.5
2934.17	6998.5
2932.73	6982
2931.29	6953.5
2929.86	7010.5
2928.42	7100.5
2926.98	7086
2925.55	7104
2924.11	7106.5
2922.67	7201.5
2921.23	7123
2919.79	7194
2918.35	7194.5
2916.91	7186.5
2915.47	7177.5
2914.03	7166
2912.59	7192
2911.15	7219
2909.71	7170
2908.26	7246
2906.82	7324.5
2905.38	7252.5
2903.94	7269.5
2902.49	7300.5
2901.05	7323.5
2899.6	7304.5
2898.16	7281
2896.71	7409
2895.27	7380.5
2893.82	7396
2892.38	7384.5
2890.93	7393.5
2889.48	7397
2888.03	7314.5
2886.59	7413.5
2885.14	7367
2883.69	7375.5
2882.24	7464.5
2880.79	7449.5
2879.34	7481.5
2877.89	7513.5
2876.44	7454
2874.99	7529
2873.54	7482.5
2872.09	7500.5
2870.64	7587
2869.18	7490
2867.73	7519
2866.28	7558.5
2864.83	7587
2863.37	7540.5
2861.92	7475.5
2860.46	7535.5
2859.01	7526
2857.55	7546
2856.1	7487.5
2854.64	7541.5
2853.19	7546.5
2851.73	7444.5
2850.27	7482.5
2848.81	7513.5
2847.36	7521
2845.9	7475
2844.44	7527.5
2842.98	7489
2841.52	7420.5
2840.06	7471.5
2838.6	7462
2837.14	7429
2835.68	7459
2834.22	7389.5
2832.76	7325
2831.3	7381
2829.83	7324
2828.37	7315.5
2826.91	7376
2825.44	7297
2823.98	7319
2822.52	7325
2821.05	7359
2819.59	7330
2818.12	7320.5
2816.66	7272.5
2815.19	7252.5
2813.72	7229.5
2812.26	7218
2810.79	7315
2809.32	7208.5
2807.85	7263
2806.38	7202.5
2804.92	7217.5
2803.45	7184.5
2801.98	7185.5
2800.51	7239
2799.04	7220
2797.57	7161.5
2796.1	7206
2794.62	7181.5
2793.15	7111.5
2791.68	7057.5
2790.21	7112
2788.73	7166
2787.26	7108
2785.79	7145.5
2784.31	7012.5
2782.84	7152
2781.36	7122
2779.89	7144
2778.41	7154.5
2776.94	7168
2775.46	7216
2773.99	7252.5
2772.51	7186
2771.03	7240
2769.55	7201.5
2768.07	7267
2766.6	7221.5
2765.12	7312
2763.64	7337.5
2762.16	7229.5
2760.68	7251.5
2759.2	7351.5
2757.72	7354.5
2756.24	7237
2754.75	7231.5
2753.27	7230.5
2751.79	7312.5
2750.31	7256
2748.82	7291.5
2747.34	7269.5
2745.86	7228
2744.37	7236
2742.89	7298.5
2741.4	7268.5
2739.92	7288
2738.43	7209
2736.94	7156.5
2735.46	7257
2733.97	7205
2732.48	7245
2731	7226
2729.51	7147
2728.02	7188.5
2726.53	7165.5
2725.04	7191.5
2723.55	7167
2722.06	7155.5
2720.57	7142
2719.08	7118.5
2717.59	7095
2716.1	7157.5
2714.61	7105
2713.11	7194
2711.62	7173.5
2710.13	7166.5
2708.64	7208
2707.14	7156
2705.65	7146.5
2704.15	7053
2702.66	7163
2701.16	7189.5
2699.67	7047.5
2698.17	7140.5
2696.67	7123.5
2695.18	7101.5
2693.68	7136.5
2692.18	7159.5
2690.69	7118.5
2689.19	7071
2687.69	7094
2686.19	7053
2684.69	7050
2683.19	7073.5
2681.69	6990.5
2680.19	7016.5
2678.69	7034.5
2677.19	6963
2675.68	6900.5
2674.18	6872
2672.68	6910.5
2671.18	6946
2669.67	6921
2668.17	6926
2666.66	6894.5
2665.16	6873
2663.66	6867
2662.15	6883.5
2660.64	6876
2659.14	6889
2657.63	6842.5
2656.13	6898.5
2654.62	6872.5
2653.11	6835.5
2651.6	6725
2650.09	6828.5
2648.58	6872.5
2647.08	6796.5
2645.57	6817
2644.06	6745.5
2642.55	6735
2641.04	6683
2639.52	6704
2638.01	6694.5
2636.5	6671.5
2634.99	6628
2633.48	6552.5
2631.96	6587.5
2630.45	6621
2628.94	6607.5
2627.42	6572.5
2625.91	6556
2624.39	6539.5
2622.88	6567.5
2621.36	6556.5
2619.85	6523.5
2618.33	6525.5
2616.81	6551.5
2615.3	6431.5
2613.78	6473.5
2612.26	6467.5
2610.74	6481
2609.22	6437.5
2607.7	6419.5
2606.18	6438
2604.66	6414
2603.14	6380.5
2601.62	6348.5
2600.1	6344
2598.58	6215
2597.06	6220
2595.54	6238.5
2594.01	6256
2592.49	6207
2590.97	6185
2589.44	6190.5
2587.92	6238.5
2586.39	6193
2584.87	6208
2583.34	6178.5
2581.82	6164
2580.29	6084
2578.76	6193.5
2577.24	6171
2575.71	6112
2574.18	6217.5
2572.65	6106
2571.13	6175.5
2569.6	6138.5
2568.07	6080.5
2566.54	6117.5
2565.01	6126.5
2563.48	6134
2561.95	6131.5
2560.42	6053
2558.88	6092
2557.35	6056.5
2555.82	6017.5
2554.29	6043.5
2552.75	6016
2551.22	5899
2549.69	5954
2548.15	5989
2546.62	5963
2545.08	5954
2543.55	5963.5
2542.01	5825
2540.47	5856
2538.94	5780.5
2537.4	5899
2535.86	5801
2534.33	5758.5
2532.79	5779.5
2531.25	5783
2529.71	5865.5
2528.17	5717
2526.63	5701.5
2525.09	5694
2523.55	5693
2522.01	5680
2520.47	5614.5
2518.92	5668.5
2517.38	5627
2515.84	5579.5
2514.3	5613
2512.75	5635.5
2511.21	5533.5
2509.67	5577.5
2508.12	5528
2506.58	5492
2505.03	5546.5
2503.49	5404.5
2501.94	5525
2500.39	5510
2498.85	5463.5
2497.3	5413.5
2495.75	5433.5
2494.2	5417
2492.65	5361.5
2491.11	5365.5
2489.56	5394
2488.01	5310.5
2486.46	5282.5
2484.91	5355.5
2483.36	5336
2481.8	5253.5
2480.25	5295.5
2478.7	5266
2477.15	5170.5
2475.6	5285
2474.04	5220.5
2472.49	5165.5
2470.93	5180.5
2469.38	5119.5
2467.83	5121
2466.27	5123
2464.71	5108.5
2463.16	5013
2461.6	5012
2460.05	5040
2458.49	5008
2456.93	4976.5
2455.37	4908.5
2453.81	4971
2452.26	4931
2450.7	4873.5
2449.14	4822.5
2447.58	4825.5
2446.02	4784
2444.46	4829
2442.9	4721
2441.33	4768
2439.77	4758
2438.21	4715
2436.65	4746.5
2435.08	4748
2433.52	4753
2431.96	4650.5
2430.39	4699.5
2428.83	4744
2427.26	4658
2425.7	4716.5
2424.13	4637.5
2422.56	4603.5
2421	4647.5
2419.43	4599
2417.86	4617.5
2416.3	4619
2414.73	4547.5
2413.16	4569
2411.59	4514
2410.02	4544.5
2408.45	4523
2406.88	4547.5
2405.31	4497
2403.74	4466
2402.17	4497
2400.6	4472
2399.02	4484.5
2397.45	4490.5
2395.88	4392.5
2394.3	4421
2392.73	4427.5
2391.16	4398
2389.58	4402.5
2388.01	4419
2386.43	4400
2384.86	4372
2383.28	4323
2381.7	4341.5
2380.13	4363
2378.55	4356.5
2376.97	4357.5
2375.39	4311
2373.81	4292
2372.23	4381
2370.65	4387.5
2369.07	4312
2367.49	4264.5
2365.91	4286
2364.33	4383.5
2362.75	4297
2361.17	4296.5
2359.59	4292.5
2358.01	4249
2356.42	4245.5
2354.84	4262.5
2353.25	4235
2351.67	4212
2350.09	4191
2348.5	4148
2346.92	4227.5
2345.33	4193
2343.74	4247.5
2342.16	4183
2340.57	4174
2338.98	4194
2337.39	4143.5
2335.81	4189
2334.22	4139.5
2332.63	4138.5
2331.04	4104.5
2329.45	4125.5
2327.86	4046.5
2326.27	4059.5
2324.68	4086
2323.09	4094.5
2321.49	4048
2319.9	4087.5
2318.31	4067
2316.72	3982
2315.12	3994.5
2313.53	4051.5
2311.93	3931.5
2310.34	3958.5
2308.74	3935.5
2307.15	3931.5
2305.55	3959
2303.96	3927
2302.36	3887.5
2300.76	3898
2299.17	3874.5
2297.57	3856.5
2295.97	3795
2294.37	3806.5
2292.77	3814
2291.17	3813
2289.57	3747.5
2287.97	3745
2286.37	3777.5
2284.77	3773.5
2283.17	3730.5
2281.57	3744.5
2279.96	3754
2278.36	3709.5
2276.76	3706.5
2275.15	3737.5
2273.55	3685
2271.95	3688
2270.34	3656.5
2268.74	3621
2267.13	3592
2265.52	3519.5
2263.92	3553
2262.31	3597.5
2260.7	3557
2259.1	3599.5
2257.49	3518
2255.88	3572
2254.27	3592.5
2252.66	3499
2251.05	3468.5
2249.44	3552.5
2247.83	3501.5
2246.22	3514
2244.61	3512.5
2243	3472
2241.39	3431
2239.77	3481.5
2238.16	3455.5
2236.55	3426
2234.93	3392
2233.32	3423
2231.7	3405
2230.09	3372
2228.47	3325
2226.86	3350.5
2225.24	3342.5
2223.63	3347.5
2222.01	3362.5
2220.39	3332.5
2218.77	3326
2217.16	3306
2215.54	3305.5
2213.92	3327
2212.3	3278
2210.68	3244.5
2209.06	3232.5
2207.44	3246.5
2205.82	3204.5
2204.19	3236.5
2202.57	3190
2200.95	3220.5
2199.33	3179.5
2197.7	3207.5
2196.08	3167
2194.46	3134
2192.83	3172
2191.21	3142.5
2189.58	3143.5
2187.96	3100.5
2186.33	3133.5
2184.7	3138.5
2183.08	3126.5
2181.45	3099
2179.82	3058
2178.19	3023
2176.57	3005.5
2174.94	3018
2173.31	3028.5
2171.68	2995.5
2170.05	2987.5
2168.42	2969
2166.79	2992
2165.16	2966
2163.52	2919
2161.89	2885
2160.26	2907.5
2158.63	2918.5
2156.99	2882.5
2155.36	2879.5
2153.73	2898
2152.09	2896.5
2150.46	2878.5
2148.82	2855.5
2147.18	2817
2145.55	2824.5
2143.91	2851
2142.27	2799
2140.64	2809.5
2139	2796
2137.36	2745.5
2135.72	2738.5
2134.08	2752
2132.44	2744.5
2130.8	2674
2129.16	2696
2127.52	2654
2125.88	2624
2124.24	2657.5
2122.6	2616
2120.95	2638.5
2119.31	2661
2117.67	2605
2116.02	2589
2114.38	2550
2112.74	2570.5
2111.09	2568.5
2109.45	2529.5
2107.8	2576
2106.15	2539
2104.51	2519
2102.86	2533.5
2101.21	2512
2099.56	2507.5
2097.92	2488
2096.27	2486
2094.62	2481.5
2092.97	2420
2091.32	2429.5
2089.67	2494
2088.02	2447
2086.37	2495.5
2084.72	2454
2083.06	2469.5
2081.41	2441
2079.76	2418.5
2078.1	2419
2076.45	2415.5
2074.8	2426.5
2073.14	2410
2071.49	2447.5
2069.83	2434
2068.18	2413.5
2066.52	2394.5
2064.86	2392
2063.21	2325.5
2061.55	2396.5
2059.89	2344.5
2058.23	2359
2056.57	2358
2054.92	2322.5
2053.26	2328.5
2051.6	2367.5
2049.94	2333
2048.27	2281.5
2046.61	2292
2044.95	2307
2043.29	2270
2041.63	2298.5
2039.97	2283
2038.3	2253
2036.64	2225.5
2034.97	2235
2033.31	2195.5
2031.64	2180.5
2029.98	2146
2028.31	2111.5
2026.65	2145
2024.98	2112
2023.31	2196.5
2021.65	2133
2019.98	2108
2018.31	2154.5
2016.64	2064.5
2014.97	2083
2013.3	2094.5
2011.63	2090
2009.96	2053.5
2008.29	2071.5
2006.62	2073.5
2004.95	2027.5
2003.28	2027.5
2001.6	2005
1999.93	2008.5
1998.26	2028.5
1996.58	2053.5
1994.91	2055
1993.24	2029
1991.56	2000
1989.89	1956
1988.21	1986
1986.53	1988
1984.86	1965.5
1983.18	1954.5
1981.5	1961
1979.82	1954.5
1978.15	1905
1976.47	1914.5
1974.79	1913.5
1973.11	1924.5
1971.43	1922
1969.75	1886.5
1968.07	1892
1966.38	1900
1964.7	1841.5
1963.02	1874
1961.34	1850
1959.66	1849.5
1957.97	1853
1956.29	1889
1954.6	1835
1952.92	1848.5
1951.23	1840.5
1949.55	1799
1947.86	1846.5
1946.18	1818
1944.49	1791
1942.8	1830
1941.11	1759
1939.43	1782
1937.74	1791
1936.05	1750.5
1934.36	1765
1932.67	1745
1930.98	1737
1929.29	1718
1927.6	1745
1925.91	1698.5
1924.21	1674
1922.52	1642
1920.83	1679.5
1919.14	1651
1917.44	1680
1915.75	1659.5
1914.05	1671.5
1912.36	1659.5
1910.66	1679
1908.97	1606
1907.27	1622
1905.58	1657.5
1903.88	1595
1902.18	1612.5
1900.48	1617.5
1898.79	1601.5
1897.09	1573
1895.39	1556
1893.69	1585
1891.99	1535
1890.29	1548
1888.59	1537
1886.89	1572
1885.18	1541.5
1883.48	1573
1881.78	1551
1880.08	1529
1878.37	1500.5
1876.67	1487.5
1874.96	1430.5
1873.26	1458.5
1871.55	1440.5
1869.85	1427.5
1868.14	1420.5
1866.44	1484
1864.73	1463
1863.02	1461.5
1861.32	1451.5
1859.61	1384
1857.9	1448.5
1856.19	1416.5
1854.48	1396
1852.77	1406
1851.06	1382
1849.35	1415.5
1847.64	1357.5
1845.93	1378
1844.21	1357
1842.5	1387
1840.79	1381
1839.08	1354
1837.36	1403.5
1835.65	1367
1833.93	1333
1832.22	1378.5
1830.5	1369
1828.79	1316.5
1827.07	1320.5
1825.36	1287
1823.64	1323.5
1821.92	1317
1820.2	1283.5
1818.48	1283
1816.77	1287.5
1815.05	1263.5
1813.33	1285
1811.61	1288.5
1809.89	1262.5
1808.16	1248
1806.44	1276
1804.72	1224.5
1803	1264.5
1801.28	1247.5
1799.55	1254.5
1797.83	1225.5
1796.11	1214.5
1794.38	1235
1792.66	1179
1790.93	1217.5
1789.21	1193.5
1787.48	1208
1785.75	1229
1784.03	1168.5
1782.3	1218.5
1780.57	1102
1778.84	1143
1777.11	1193.5
1775.38	1167.5
1773.66	1175
1771.93	1154
1770.19	1168.5
1768.46	1155
1766.73	1197
1765	1151
1763.27	1128.5
1761.54	1151
1759.8	1161.5
1758.07	1148
1756.34	1167
1754.6	1196.5
1752.87	1213
1751.13	1175
1749.4	1182
1747.66	1192
1745.92	1167
1744.19	1161.5
1742.45	1140.5
1740.71	1180.5
1738.97	1159
1737.23	1147
1735.49	1135
1733.75	1163.5
1732.01	1124
1730.27	1132.5
1728.53	1056
1726.79	1060
1725.05	1039
1723.31	1044
1721.57	1047.5
1719.82	1063.5
1718.08	1045.5
1716.34	1059
1714.59	1025
1712.85	1030
1711.1	1034.5
1709.36	1029.5
1707.61	1040
1705.86	1023.5
1704.12	986
1702.37	1029.5
1700.62	990.5
1698.87	996.5
1697.12	990.5
1695.37	993.5
1693.62	989
1691.87	1006
1690.12	954
1688.37	974
1686.62	982.5
1684.87	979.5
1683.12	949.5
1681.36	955
1679.61	921
1677.86	961
1676.1	965
1674.35	952
1672.59	971.5
1670.84	1004
1669.08	1024
1667.33	987
1665.57	1055
1663.81	1073
1662.06	1069
1660.3	1136
1658.54	1111
1656.78	1153
1655.02	1077.5
1653.26	1153.5
1651.5	1075
1649.74	1058.5
1647.98	1021
1646.22	991.5
1644.46	982.5
1642.7	952
1640.93	963
1639.17	933.5
1637.41	887.5
1635.64	902
1633.88	891
1632.11	903
1630.35	881.5
1628.58	888
1626.81	879
1625.05	872.5
1623.28	851
1621.51	834
1619.75	814
1617.98	835
1616.21	841
1614.44	790.5
1612.67	815
1610.9	815.5
1609.13	823.5
1607.36	834.5
1605.58	801
1603.81	823
1602.04	826.5
1600.27	811
1598.49	805.5
1596.72	839
1594.95	798.5
1593.17	809.5
1591.4	808
1589.62	805.5
1587.84	814
1586.07	812
1584.29	783
1582.51	787
1580.74	776
1578.96	782
1577.18	767
1575.4	781.5
1573.62	792
1571.84	765.5
1570.06	747
1568.28	773
1566.5	742
1564.72	766.5
1562.93	747
1561.15	754
1559.37	751
1557.58	756
1555.8	767.5
1554.02	759
1552.23	755
1550.45	727
1548.66	730
1546.87	744
1545.09	711
1543.3	723
1541.51	707
1539.72	722.5
1537.94	702.5
1536.15	737
1534.36	726
1532.57	707
1530.78	677.5
1528.99	738.5
1527.2	668.5
1525.4	671
1523.61	708.5
1521.82	703
1520.03	698
1518.23	695
1516.44	702
1514.65	698.5
1512.85	679
1511.06	679
1509.26	734
1507.46	690
1505.67	683.5
1503.87	701.5
1502.07	705
1500.28	724.5
1498.48	681.5
1496.68	708.5
1494.88	696.5
1493.08	726.5
1491.28	708
1489.48	730
1487.68	692.5
1485.88	713
1484.08	754
1482.27	748
1480.47	756
1478.67	732
1476.86	768.5
1475.06	817.5
1473.25	808.5
1471.45	859
1469.64	844
1467.84	919
1466.03	943
1464.23	967
1462.42	1042
1460.61	1081.5
1458.8	1019
1456.99	1086
1455.18	1089
1453.37	1129
1451.56	1154
1449.75	1102
1447.94	1207
1446.13	1193
1444.32	1248
1442.51	1237
1440.7	1266
1438.88	1230
1437.07	1180
1435.26	1122
1433.44	1031
1431.63	950.5
1429.81	889.5
1427.99	821.5
1426.18	822.5
1424.36	784
1422.54	755.5
1420.73	750
1418.91	745
1417.09	717.5
1415.27	722
1413.45	648
1411.63	687
1409.81	651
1407.99	616
1406.17	631.5
1404.35	640
1402.53	630
1400.7	603
1398.88	606
1397.06	629.5
1395.23	603
1393.41	608
1391.58	603
1389.76	599.5
1387.93	631
1386.11	583
1384.28	605.5
1382.45	622
1380.62	621.5
1378.8	606
1376.97	567
1375.14	619
1373.31	623
1371.48	623
1369.65	625.5
1367.82	598
1365.99	622.5
1364.16	600.5
1362.32	604
1360.49	599.5
1358.66	576
1356.82	591
1354.99	579
1353.16	599
1351.32	590.5
1349.48	600.5
1347.65	601
1345.81	591.5
1343.98	582
1342.14	578
1340.3	596.5
1338.46	613.5
1336.62	600
1334.79	602
1332.95	603
1331.11	620.5
1329.27	641
1327.42	647
1325.58	672
1323.74	700.5
1321.9	673.5
1320.06	726
1318.21	743
1316.37	753
1314.53	779.5
1312.68	794.5
1310.84	838.5
1308.99	876
1307.15	905.5
1305.3	986
1303.45	911
1301.61	997
1299.76	990
1297.91	940.5
1296.06	908
1294.21	824
1292.36	802.5
1290.51	741
1288.66	746
1286.81	698
1284.96	708.5
1283.11	708
1281.26	709.5
1279.4	697
1277.55	679
1275.7	694
1273.84	683
1271.99	719
1270.13	697
1268.28	696
1266.42	703
1264.56	681.5
1262.71	685
1260.85	706
1258.99	702
1257.13	653
1255.27	617.5
1253.41	634
1251.56	598
1249.7	611.5
1247.83	582
1245.97	577.5
1244.11	580
1242.25	510
1240.39	532.5
1238.52	536
1236.66	536.5
1234.8	512
1232.93	530
1231.07	527.5
1229.2	495.5
1227.34	513.5
1225.47	481.5
1223.6	489
1221.74	449
1219.87	522
1218	478.5
1216.13	468
1214.26	486
1212.39	498.5
1210.53	456
1208.65	462.5
1206.78	451.5
1204.91	461.5
1203.04	494.5
1201.17	476.5
1199.3	465
1197.42	468
1195.55	466
1193.68	444
1191.8	448.5
1189.93	471
1188.05	456
1186.17	464.5
1184.3	497.5
1182.42	456
1180.54	473
1178.67	465
1176.79	464.5
1174.91	472
1173.03	465
1171.15	455
1169.27	454
1167.39	472
1165.51	476.5
1163.63	430.5
1161.75	468.5
1159.86	440
1157.98	451
1156.1	454
1154.21	472.5
1152.33	461
1150.44	465.5
1148.56	462.5
1146.67	439
1144.79	475
1142.9	451
1141.01	455.5
1139.12	484.5
1137.24	485
1135.35	469
1133.46	552
1131.57	539.5
1129.68	569.5
1127.79	565
1125.9	579
1124.01	572
1122.12	574.5
1120.22	538.5
1118.33	552
1116.44	561
1114.54	520
1112.65	543.5
1110.75	506.5
1108.86	543
1106.96	558
1105.07	540
1103.17	568
1101.27	557
1099.38	596
1097.48	634.5
1095.58	630
1093.68	644
1091.78	674
1089.88	709
1087.98	663.5
1086.08	743
1084.18	710.5
1082.28	717.5
1080.38	691.5
1078.47	706
1076.57	700
1074.67	660.5
1072.76	657.5
1070.86	683.5
1068.95	685.5
1067.05	716
1065.14	721
1063.24	701.5
1061.33	697.5
1059.42	630
1057.51	608
1055.6	560
1053.7	571.5
1051.79	564
1049.88	529
1047.97	540.5
1046.06	558
1044.14	537.5
1042.23	500
1040.32	577
1038.41	531.5
1036.5	556
1034.58	522.5
1032.67	530
1030.75	561
1028.84	540.5
1026.92	554
1025.01	554.5
1023.09	530
1021.17	553
1019.26	574
1017.34	506
1015.42	510
1013.5	534.5
1011.58	521
1009.66	528
1007.74	563
1005.82	535
1003.9	532
1001.98	540
1000.06	512.5
998.134	537
996.212	533
994.288	584
992.364	604
990.44	564.5
988.515	615
986.589	612
984.663	668
982.737	638.5
980.81	680.5
978.883	687
976.955	679
975.027	742
973.098	709
971.169	689
969.239	694
967.308	713.5
965.378	714.5
963.447	733
961.516	724
959.583	714.5
957.65	745.5
955.718	751
953.784	754.5
951.85	751.5
949.916	771
947.981	796.5
946.045	775
944.109	776.5
942.173	822
940.236	813.5
938.298	799
936.36	747
934.422	770
932.484	682.5
930.544	704
928.604	672
926.664	630
924.724	634.5
922.782	622
920.84	587
918.898	602
916.955	580
915.012	573
913.068	598.5
911.124	540
909.18	591
907.235	548
905.289	562
903.343	579.5
901.397	631
899.45	591
897.502	599.5
895.554	639
893.605	627.5
891.657	632
889.707	630
887.758	639
885.807	634.5
883.856	648.5
881.905	636.5
879.953	658.5
878.001	645
876.048	663.5
874.094	676.5
872.14	645.5
870.186	635.5
868.232	701.5
866.276	686.5
864.321	655
862.365	636
860.408	641.5
858.451	585
856.493	613
854.535	624
852.576	649
850.617	618.5
848.658	602.5
846.698	639
844.737	621.5
842.776	643.5
840.814	604.5
838.852	614
836.89	584
834.927	563.5
832.963	570
830.999	548
829.035	567
827.07	550
825.105	528.5
823.139	518
821.172	504.5
819.206	505
817.238	489
815.27	483.5
813.301	491
811.333	467.5
809.363	441.5
807.394	447.5
805.424	468
803.453	463
801.482	432
799.509	413
797.538	402.5
795.565	460
793.592	387.5
791.618	419
789.643	410
787.669	381
785.693	416
783.718	404
781.742	434.5
779.765	421.5
777.788	376.5
775.811	406.5
773.832	404
771.853	382
769.875	399
767.895	408.5
765.915	397
763.934	378.5
761.953	427
759.972	406.5
757.99	369
756.007	393.5
754.024	387.5
752.041	396
750.056	380.5
748.072	393.5
746.087	406.5
744.102	424
742.116	413
740.13	386.5
738.143	410.5
736.155	420.5
734.167	399.5
732.179	396
730.19	391.5
728.2	413.5
726.21	429.5
724.22	410.5
722.229	399
720.237	403.5
718.246	439.5
716.253	370.5
714.26	415
712.267	382.5
710.273	389
708.279	402.5
706.284	395
704.289	376
702.293	386.5
700.296	369
698.3	381.5
696.303	382
694.305	358
692.307	408.5
690.307	368
688.308	398.5
686.309	391
684.308	394
682.308	371.5
680.306	389
678.304	402.5
676.302	386
674.3	394
672.296	401.5
670.293	379.5
668.289	409
666.284	421.5
664.278	420.5
662.273	381.5
660.266	395
658.26	435
656.252	428
654.244	429.5
652.237	388.5
650.227	379
648.218	421
646.209	432
644.198	409.5
642.188	439.5
640.177	386
638.165	433
636.153	418
634.14	430.5
632.128	413.5
630.113	441
628.099	411
626.085	437.5
624.07	441
622.054	448
620.038	486
618.021	456.5
616.004	442
613.986	437
611.968	457.5
609.949	460.5
607.93	404.5
605.911	455
603.891	450.5
601.87	399.5
599.848	447.5
597.827	430.5
595.805	466
593.782	442.5
591.759	455.5
589.735	453.5
587.711	440.5
585.687	445
583.661	447.5
581.636	427
579.609	442
577.583	419
575.555	442.5
573.527	430.5
571.5	408.5
569.471	457.5
567.441	445
565.412	421
563.382	456
561.351	495.5
559.32	468
557.289	489
555.257	461.5
553.223	496
551.19	493.5
549.157	508
547.122	538
545.088	599.5
543.053	623
541.017	653.5
538.981	711
536.943	804.5
534.907	977
532.869	1260.5
530.831	1690.5
528.792	2574.5
526.752	3965
524.713	6015
522.673	7797.5
520.632	8112
518.591	6803.5
516.549	5003
514.507	3414
512.464	2243.5
510.42	1534.5
508.377	1096
506.332	872.5
504.288	758.5
502.242	689
500.196	659
498.15	598
496.104	581
494.056	607.5
492.008	588.5
489.96	577.5
487.911	540.5
485.862	534
483.812	544.5
481.761	563
479.71	527.5
477.659	517
475.607	521
473.555	526.5
471.502	539
469.448	518.5
467.395	488.5
465.34	508.5
463.285	512
461.23	481.5
459.174	526.5
457.118	495
455.061	546.5
453.003	497.5
450.945	545.5
448.887	521.5
446.828	533
444.768	531
442.708	534
440.647	568.5
438.587	563
436.525	547.5
434.463	571.5
432.4	543.5
430.337	570
428.274	560
426.21	582
424.145	583.5
422.079	550
420.014	593.5
417.948	538
415.882	592
413.814	576
411.746	573
409.679	568
407.609	552
405.54	610.5
403.47	611
401.401	591
399.329	612.5
397.258	608.5
395.187	595
393.114	594
391.041	612.5
388.968	606
386.895	598.5
384.82	575.5
382.745	622.5
380.67	587.5
378.594	617.5
376.517	620
374.44	619.5
372.363	609
370.286	598
368.207	609.5
366.128	577.5
364.049	670
361.969	634
359.888	637.5
357.807	645
355.725	630
353.643	683
351.561	628
349.477	649
347.394	628
345.31	650
343.226	673
341.141	664.5
339.055	664
336.968	706
334.882	689
332.795	705
330.707	739.5
328.618	728
326.53	762.5
324.44	726
322.351	768
320.26	786.5
318.17	794
316.078	854.5
313.987	851
311.895	893
309.802	942
307.708	955.5
305.614	999.5
303.52	981
301.425	984.5
299.329	971.5
297.233	918
295.137	908
293.039	878
290.942	851.5
288.844	885.5
286.745	861
284.647	850
282.546	831
280.446	848.5
278.346	837.5
276.245	850
274.143	864
272.041	814
269.939	796.5
267.835	826.5
265.731	845
263.627	870.5
261.522	865.5
259.417	879.5
257.311	873
255.204	857
253.098	857
250.99	867
248.882	905
246.774	906.5
244.664	862.5
242.555	937.5
240.445	931
238.334	931.5
236.223	942.5
234.112	937.5
232	935.5
229.888	969
227.775	942.5
225.661	978.5
223.546	982
221.431	954.5
219.316	967
217.201	994
215.084	989
212.967	998.5
210.85	986.5
208.732	1036.5
206.614	1019.5
204.495	1026
202.375	993.5
200.256	1012.5
198.135	985.5
196.014	1034
193.893	1046.5
191.771	994
189.648	1039
187.525	1002
185.401	1029
183.277	1035.5
181.152	1039
179.027	1037
176.901	1023.5
174.775	1085
172.648	1100.5
170.521	1114.5
168.393	1083.5
166.265	1130.5
164.136	1114.5
162.007	1155.5
159.876	1146
157.746	1197.5
155.615	1191
153.483	1250
151.351	1232.5
149.219	1300.5
147.086	1336
144.952	1364.5
142.818	1373
140.684	1453
138.548	1407
136.413	1448.5
134.276	1566.5
132.139	1537
130.002	1596
127.864	1675
125.725	1703.5
123.587	1755
121.447	1797.5
119.307	1864
117.166	1939
115.026	1974
112.885	1996
110.743	2086
108.6	2138
106.456	2210.5
104.313	2207
102.169	2220.5
100.023	2130
97.8789	2006
95.7328	1878
93.5869	1667
91.4392	1487.5
89.2919	1168.5
87.1447	935.5
84.9959	774
