3528.51	116
3527.23	126.5
3525.95	138
3524.67	135
3523.39	148
3522.1	150
3520.82	135.5
3519.54	152.5
3518.26	149
3516.97	164
3515.69	162
3514.4	157
3513.12	143.5
3511.84	142
3510.55	130.5
3509.26	151
3507.98	148.5
3506.69	145
3505.41	157.5
3504.12	157
3502.83	160
3501.54	160.5
3500.26	164.5
3498.97	171
3497.68	176
3496.39	154
3495.1	179.5
3493.81	168.5
3492.52	185
3491.23	185.5
3489.94	193.5
3488.65	187
3487.36	193.5
3486.07	198.5
3484.78	201.5
3483.49	186.5
3482.19	177.5
3480.9	187
3479.61	201.5
3478.31	203
3477.02	208.5
3475.73	217
3474.43	217.5
3473.14	216
3471.84	209
3470.54	216
3469.25	194.5
3467.95	207
3466.66	212.5
3465.36	209
3464.06	207
3462.76	220
3461.46	221.5
3460.17	235
3458.87	226
3457.57	225
3456.27	230
3454.97	241.5
3453.67	231
3452.37	221
3451.07	236.5
3449.77	248.5
3448.47	238
3447.16	247.5
3445.86	250.5
3444.56	263
3443.26	249.5
3441.95	257
3440.65	254
3439.35	256.5
3438.04	262.5
3436.74	278.5
3435.43	282
3434.13	272.5
3432.82	281
3431.52	292.5
3430.21	303.5
3428.9	300
3427.6	298.5
3426.29	325
3424.98	311.5
3423.67	335
3422.36	322.5
3421.06	333
3419.75	335.5
3418.44	341
3417.13	347.5
3415.82	348.5
3414.51	351
3413.2	346.5
3411.88	350
3410.57	350
3409.26	353
3407.95	359
3406.64	364
3405.32	340
3404.01	367
3402.7	390.5
3401.38	371.5
3400.07	378.5
3398.75	398.5
3397.44	388.5
3396.12	362.5
3394.81	370
3393.49	379
3392.18	377
3390.86	393.5
3389.54	401
3388.23	414
3386.91	415
3385.59	435.5
3384.27	422.5
3382.95	423
3381.63	435
3380.31	415
3378.99	423
3377.67	430.5
3376.35	436.5
3375.03	434
3373.71	446.5
3372.39	439.5
3371.07	452
3369.75	448
3368.42	458
3367.1	462.5
3365.78	459
3364.45	471
3363.13	457.5
3361.81	469.5
3360.48	462.5
3359.16	467.5
3357.83	474
3356.51	484
3355.18	480
3353.85	504
3352.53	501
3351.2	502.5
3349.87	505
3348.54	508
3347.22	493
3345.89	492
3344.56	492
3343.23	491.5
3341.9	502
3340.57	516
3339.24	510
3337.91	516
3336.58	504.5
3335.25	499.5
3333.92	514
3332.58	521
3331.25	510
3329.92	529
3328.59	526
3327.25	544
3325.92	527
3324.58	546.5
3323.25	530.5
3321.92	555
3320.58	544
3319.25	539
3317.91	535.5
3316.57	555
3315.24	547.5
3313.9	544.5
3312.56	539
3311.23	585.5
3309.89	557
3308.55	580
3307.21	584.5
3305.87	573
3304.53	582
3303.19	590.5
3301.85	567
3300.51	569
3299.17	588
3297.83	590
3296.49	582
3295.15	606
3293.81	601.5
3292.46	604
3291.12	617
3289.78	595
3288.43	615.5
3287.09	591
3285.75	595
3284.4	598
3283.06	618
3281.71	615
3280.37	643
3279.02	629
3277.67	644
3276.33	638
3274.98	647
3273.63	636
3272.28	645.5
3270.94	655
3269.59	657.5
3268.24	661
3266.89	690
3265.54	704.5
3264.19	710
3262.84	706
3261.49	710
3260.14	751.5
3258.79	741
3257.44	736.5
3256.08	764.5
3254.73	784
3253.38	791
3252.03	788.5
3250.67	815.5
3249.32	853
3247.96	880
3246.61	890.5
3245.26	906.5
3243.9	912
3242.54	966.5
3241.19	974
3239.83	1009.5
3238.48	1024
3237.12	1058.5
3235.76	1063
3234.41	1110
3233.05	1136
3231.69	1178
3230.33	1216
3228.97	1205.5
3227.61	1234.5
3226.25	1252
3224.89	1245.5
3223.53	1264.5
3222.17	1329.5
3220.81	1328.5
3219.45	1315
3218.09	1368
3216.72	1378.5
3215.36	1393
3214	1400.5
3212.63	1415
3211.27	1421.5
3209.91	1425.5
3208.54	1402.5
3207.18	1445
3205.81	1431.5
3204.45	1451
3203.08	1483
3201.71	1503.5
3200.35	1480
3198.98	1485
3197.61	1520
3196.25	1506
3194.88	1491.5
3193.51	1514.5
3192.14	1514
3190.77	1514
3189.4	1546.5
3188.03	1543
3186.66	1565
3185.29	1612.5
3183.92	1589
3182.55	1563.5
3181.18	1581
3179.81	1582.5
3178.44	1609.5
3177.06	1601
3175.69	1614.5
3174.32	1641.5
3172.94	1669.5
3171.57	1673.5
3170.2	1671
3168.82	1687.5
3167.45	1715.5
3166.07	1704
3164.69	1709.5
3163.32	1727.5
3161.94	1717
3160.56	1745
3159.19	1765
3157.81	1791.5
3156.43	1829
3155.05	1819.5
3153.67	1829
3152.3	1855
3150.92	1869
3149.54	1901.5
3148.16	1882.5
3146.78	1864.5
3145.4	1896
3144.01	1920
3142.63	1901
3141.25	1933
3139.87	1993.5
3138.49	2003.5
3137.1	1977.5
3135.72	2012
3134.34	2003
3132.95	2035
3131.57	2033
3130.18	2082.5
3128.8	2069
3127.41	2057.5
3126.03	2071
3124.64	2129.5
3123.25	2120.5
3121.87	2120
3120.48	2124.5
3119.09	2129
3117.7	2182.5
3116.32	2159.5
3114.93	2160.5
3113.54	2153.5
3112.15	2183
3110.76	2199
3109.37	2243
3107.98	2226
3106.59	2200.5
3105.2	2242
3103.8	2262
3102.41	2246.5
3101.02	2258.5
3099.63	2247.5
3098.23	2304
3096.84	2286.5
3095.45	2261
3094.05	2283.5
3092.66	2320
3091.26	2345
3089.87	2314.5
3088.47	2334
3087.08	2324.5
3085.68	2371.5
3084.28	2314.5
3082.89	2364
3081.49	2340.5
3080.09	2339.5
3078.69	2375.5
3077.3	2365
3075.9	2374
3074.5	2396
3073.1	2391
3071.7	2384.5
3070.3	2395
3068.9	2419.5
3067.5	2408.5
3066.09	2408
3064.69	2447
3063.29	2475
3061.89	2417
3060.48	2412
3059.08	2431
3057.68	2501.5
3056.27	2493.5
3054.87	2500.5
3053.46	2506.5
3052.06	2485.5
3050.65	2514.5
3049.25	2492.5
3047.84	2506
3046.44	2519
3045.03	2529
3043.62	2551
3042.21	2541
3040.81	2572
3039.4	2605
3037.99	2597.5
3036.58	2607
3035.17	2604.5
3033.76	2591
3032.35	2601.5
3030.94	2622.5
3029.53	2622.5
3028.12	2646.5
3026.71	2637
3025.29	2671
3023.88	2644
3022.47	2669.5
3021.06	2668.5
3019.64	2645
3018.23	2665.5
3016.82	2677
3015.4	2685
3013.99	2700.5
3012.57	2696.5
3011.15	2704
3009.74	2729
3008.32	2728.5
3006.91	2731
3005.49	2735.5
3004.07	2800
3002.65	2773.5
3001.24	2746
2999.82	2763
2998.4	2793.5
2996.98	2801.5
2995.56	2827.5
2994.14	2846
2992.72	2845
2991.3	2855
2989.88	2876.5
2988.46	2895
2987.03	2892
2985.61	2928
2984.19	2955.5
2982.77	2968.5
2981.34	2973.5
2979.92	3008
2978.49	3039
2977.07	3014
2975.65	3080
2974.22	3053.5
2972.79	3064
2971.37	3153.5
2969.94	3113
2968.52	3148
2967.09	3164
2965.66	3154
2964.23	3195.5
2962.81	3199
2961.38	3236.5
2959.95	3227.5
2958.52	3261.5
2957.09	3273.5
2955.66	3262
2954.23	3302
2952.8	3290
2951.37	3302.5
2949.94	3316
2948.5	3316.5
2947.07	3352
2945.64	3353
2944.21	3367.5
2942.77	3433.5
2941.34	3413
2939.91	3430.5
2938.47	3474.5
2937.04	3509
2935.6	3507
2934.17	3541.5
2932.73	3573
2931.29	3578.5
2929.86	3611.5
2928.42	3612
2926.98	3633.5
2925.55	3643.5
2924.11	3649
2922.67	3681
2921.23	3661
2919.79	3683
2918.35	3696
2916.91	3723
2915.47	3730
2914.03	3695
2912.59	3730
2911.15	3761.5
2909.71	3776.5
2908.26	3760
2906.82	3810
2905.38	3839.5
2903.94	3818.5
2902.49	3872
2901.05	3866.5
2899.6	3868.5
2898.16	3871
2896.71	3896
2895.27	3886
2893.82	3918
2892.38	3850.5
2890.93	3895
2889.48	3927
2888.03	3902
2886.59	3907
2885.14	3885
2883.69	3910.5
2882.24	3919
2880.79	3914
2879.34	3891
2877.89	3935.5
2876.44	3951
2874.99	3932.5
2873.54	3949.5
2872.09	3923.5
2870.64	3925
2869.18	3890
2867.73	3956.5
2866.28	3917
2864.83	3938
2863.37	3936
2861.92	3919
2860.46	3933
2859.01	4034
2857.55	3966
2856.1	3995.5
2854.64	3990.5
2853.19	3929
2851.73	3942.5
2850.27	3914
2848.81	3926
2847.36	3947
2845.9	3941
2844.44	3858
2842.98	3845.5
2841.52	3811.5
2840.06	3768
2838.6	3732
2837.14	3671
2835.68	3634
2834.22	3601
2832.76	3633.5
2831.3	3584
2829.83	3591
2828.37	3588.5
2826.91	3525
2825.44	3518.5
2823.98	3483
2822.52	3492.5
2821.05	3458.5
2819.59	3434
2818.12	3459.5
2816.66	3435.5
2815.19	3425.5
2813.72	3383
2812.26	3330.5
2810.79	3417.5
2809.32	3390.5
2807.85	3381
2806.38	3398
2804.92	3333
2803.45	3346.5
2801.98	3344.5
2800.51	3301.5
2799.04	3324
2797.57	3345
2796.1	3355
2794.62	3321.5
2793.15	3363.5
2791.68	3302.5
2790.21	3264.5
2788.73	3277.5
2787.26	3290
2785.79	3312
2784.31	3256.5
2782.84	3315.5
2781.36	3313.5
2779.89	3346
2778.41	3340
2776.94	3299
2775.46	3340
2773.99	3309
2772.51	3331
2771.03	3323.5
2769.55	3340
2768.07	3319
2766.6	3326
2765.12	3315
2763.64	3305
2762.16	3296.5
2760.68	3267.5
2759.2	3336
2757.72	3321.5
2756.24	3276
2754.75	3289
2753.27	3311
2751.79	3268
2750.31	3281.5
2748.82	3298.5
2747.34	3300
2745.86	3299
2744.37	3328
2742.89	3291.5
2741.4	3300.5
2739.92	3308.5
2738.43	3333
2736.94	3232.5
2735.46	3309
2733.97	3294
2732.48	3290.5
2731	3295
2729.51	3302.5
2728.02	3292
2726.53	3317
2725.04	3273.5
2723.55	3302.5
2722.06	3266
2720.57	3299
2719.08	3273.5
2717.59	3275.5
2716.1	3292
2714.61	3326
2713.11	3313.5
2711.62	3255.5
2710.13	3298.5
2708.64	3249
2707.14	3248
2705.65	3297
2704.15	3286
2702.66	3245
2701.16	3280.5
2699.67	3172
2698.17	3260
2696.67	3223
2695.18	3204
2693.68	3234
2692.18	3197
2690.69	3207.5
2689.19	3185.5
2687.69	3189
2686.19	3179
2684.69	3158.5
2683.19	3155.5
2681.69	3157
2680.19	3146
2678.69	3170.5
2677.19	3128
2675.68	3197.5
2674.18	3103
2672.68	3164
2671.18	3127.5
2669.67	3166
2668.17	3118
2666.66	3107
2665.16	3122.5
2663.66	3130.5
2662.15	3143
2660.64	3103
2659.14	3138
2657.63	3105.5
2656.13	3114
2654.62	3071
2653.11	3068.5
2651.6	3075
2650.09	3075.5
2648.58	3055.5
2647.08	3058.5
2645.57	3085
2644.06	3008
2642.55	3071
2641.04	3039
2639.52	3048
2638.01	3056
2636.5	3014
2634.99	3036
2633.48	2999.5
2631.96	2945
2630.45	2988.5
2628.94	2949.5
2627.42	2968
2625.91	2977.5
2624.39	2982
2622.88	2965
2621.36	2963
2619.85	2972
2618.33	2933
2616.81	2979
2615.3	2991
2613.78	2927
2612.26	2912
2610.74	2908
2609.22	2942.5
2607.7	2901.5
2606.18	2938.5
2604.66	2902.5
2603.14	2907
2601.62	2888.5
2600.1	2897
2598.58	2846.5
2597.06	2814.5
2595.54	2823.5
2594.01	2859.5
2592.49	2844.5
2590.97	2840
2589.44	2842.5
2587.92	2814.5
2586.39	2844
2584.87	2837.5
2583.34	2792.5
2581.82	2819
2580.29	2783.5
2578.76	2771.5
2577.24	2800.5
2575.71	2779
2574.18	2796.5
2572.65	2794
2571.13	2793.5
2569.6	2789
2568.07	2778.5
2566.54	2767
2565.01	2795.5
2563.48	2778
2561.95	2738
2560.42	2730.5
2558.88	2747.5
2557.35	2697
2555.82	2743
2554.29	2692
2552.75	2695.5
2551.22	2718
2549.69	2657
2548.15	2682
2546.62	2684.5
2545.08	2692.5
2543.55	2653.5
2542.01	2639
2540.47	2660.5
2538.94	2640.5
2537.4	2634.5
2535.86	2612.5
2534.33	2668.5
2532.79	2653
2531.25	2620
2529.71	2609.5
2528.17	2591
2526.63	2583
2525.09	2576.5
2523.55	2557
2522.01	2568.5
2520.47	2609
2518.92	2550.5
2517.38	2573
2515.84	2536.5
2514.3	2583.5
2512.75	2511.5
2511.21	2513
2509.67	2545
2508.12	2472.5
2506.58	2482.5
2505.03	2468
2503.49	2487.5
2501.94	2500.5
2500.39	2502
2498.85	2488.5
2497.3	2434
2495.75	2422.5
2494.2	2432
2492.65	2407.5
2491.11	2396.5
2489.56	2407.5
2488.01	2381.5
2486.46	2429
2484.91	2392.5
2483.36	2387.5
2481.8	2401.5
2480.25	2414
2478.7	2355.5
2477.15	2371
2475.6	2329.5
2474.04	2352.5
2472.49	2321.5
2470.93	2320.5
2469.38	2281
2467.83	2293.5
2466.27	2277
2464.71	2263.5
2463.16	2278.5
2461.6	2271.5
2460.05	2264.5
2458.49	2224
2456.93	2227.5
2455.37	2222
2453.81	2209.5
2452.26	2191
2450.7	2205
2449.14	2189.5
2447.58	2183
2446.02	2197
2444.46	2153.5
2442.9	2146.5
2441.33	2172
2439.77	2161
2438.21	2127.5
2436.65	2142.5
2435.08	2167.5
2433.52	2119
2431.96	2123.5
2430.39	2118.5
2428.83	2121
2427.26	2120
2425.7	2135
2424.13	2111
2422.56	2107.5
2421	2106.5
2419.43	2087.5
2417.86	2058
2416.3	2076.5
2414.73	2052.5
2413.16	2061.5
2411.59	2072.5
2410.02	2028.5
2408.45	2047
2406.88	2068
2405.31	2049
2403.74	2062.5
2402.17	2031.5
2400.6	2047
2399.02	2029.5
2397.45	1992
2395.88	2051.5
2394.3	2031.5
2392.73	2045
2391.16	2008.5
2389.58	2022.5
2388.01	2006.5
2386.43	2020.5
2384.86	2019
2383.28	1993.5
2381.7	1977
2380.13	1976
2378.55	1990
2376.97	1966
2375.39	1958.5
2373.81	1968.5
2372.23	1983.5
2370.65	1963.5
2369.07	1960
2367.49	1939
2365.91	1921
2364.33	1916.5
2362.75	1948
2361.17	1909
2359.59	1932
2358.01	1900
2356.42	1922.5
2354.84	1918
2353.25	1914
2351.67	1904
2350.09	1912
2348.5	1895.5
2346.92	1867
2345.33	1884
2343.74	1870
2342.16	1866
2340.57	1871.5
2338.98	1897
2337.39	1850.5
2335.81	1880.5
2334.22	1875.5
2332.63	1864
2331.04	1879.5
2329.45	1835.5
2327.86	1836
2326.27	1844.5
2324.68	1827
2323.09	1831.5
2321.49	1814.5
2319.9	1811
2318.31	1829.5
2316.72	1811
2315.12	1801.5
2313.53	1761.5
2311.93	1761.5
2310.34	1767
2308.74	1750.5
2307.15	1782.5
2305.55	1759.5
2303.96	1752.5
2302.36	1771
2300.76	1742
2299.17	1723.5
2297.57	1722.5
2295.97	1713
2294.37	1710
2292.77	1709.5
2291.17	1691.5
2289.57	1690
2287.97	1715
2286.37	1703
2284.77	1701.5
2283.17	1668
2281.57	1659.5
2279.96	1687.5
2278.36	1662.5
2276.76	1666.5
2275.15	1686.5
2273.55	1620
2271.95	1645
2270.34	1618
2268.74	1643
2267.13	1640
2265.52	1637
2263.92	1608.5
2262.31	1629
2260.7	1609.5
2259.1	1591.5
2257.49	1587.5
2255.88	1564.5
2254.27	1592
2252.66	1567
2251.05	1597
2249.44	1586.5
2247.83	1568.5
2246.22	1610
2244.61	1569.5
2243	1579
2241.39	1559.5
2239.77	1560
2238.16	1563.5
2236.55	1557
2234.93	1513
2233.32	1519
2231.7	1524
2230.09	1524.5
2228.47	1523.5
2226.86	1520
2225.24	1516.5
2223.63	1479.5
2222.01	1518.5
2220.39	1504
2218.77	1482
2217.16	1454.5
2215.54	1464
2213.92	1457
2212.3	1453
2210.68	1465.5
2209.06	1454.5
2207.44	1474
2205.82	1456.5
2204.19	1431.5
2202.57	1441.5
2200.95	1412.5
2199.33	1428.5
2197.7	1399
2196.08	1403.5
2194.46	1426.5
2192.83	1420
2191.21	1419.5
2189.58	1434.5
2187.96	1434.5
2186.33	1411.5
2184.7	1405.5
2183.08	1381
2181.45	1363
2179.82	1379.5
2178.19	1364
2176.57	1365.5
2174.94	1369.5
2173.31	1389.5
2171.68	1364
2170.05	1377
2168.42	1341.5
2166.79	1310
2165.16	1327.5
2163.52	1324
2161.89	1339.5
2160.26	1308
2158.63	1304.5
2156.99	1316
2155.36	1323
2153.73	1292.5
2152.09	1257
2150.46	1296
2148.82	1272.5
2147.18	1275.5
2145.55	1229.5
2143.91	1246.5
2142.27	1224.5
2140.64	1252
2139	1258.5
2137.36	1282.5
2135.72	1219
2134.08	1243
2132.44	1238
2130.8	1243.5
2129.16	1186
2127.52	1186.5
2125.88	1190.5
2124.24	1166
2122.6	1179.5
2120.95	1179
2119.31	1191.5
2117.67	1192
2116.02	1185.5
2114.38	1167
2112.74	1140
2111.09	1127
2109.45	1139.5
2107.8	1145
2106.15	1156.5
2104.51	1144.5
2102.86	1124
2101.21	1103
2099.56	1145.5
2097.92	1138.5
2096.27	1118.5
2094.62	1111.5
2092.97	1103.5
2091.32	1104
2089.67	1101
2088.02	1107.5
2086.37	1102
2084.72	1095
2083.06	1086.5
2081.41	1085
2079.76	1093
2078.1	1105.5
2076.45	1084
2074.8	1079
2073.14	1072.5
2071.49	1063.5
2069.83	1072
2068.18	1065.5
2066.52	1047.5
2064.86	1055
2063.21	1044.5
2061.55	1057
2059.89	1051.5
2058.23	1049
2056.57	1035
2054.92	1036.5
2053.26	1049
2051.6	1016.5
2049.94	1014
2048.27	1037
2046.61	1019.5
2044.95	1031
2043.29	1018.5
2041.63	1005
2039.97	1029
2038.3	1024
2036.64	1018
2034.97	985
2033.31	993.5
2031.64	980
2029.98	958.5
2028.31	944
2026.65	955.5
2024.98	952
2023.31	967.5
2021.65	934
2019.98	940
2018.31	974.5
2016.64	955
2014.97	946
2013.3	937.5
2011.63	939
2009.96	921.5
2008.29	934
2006.62	903
2004.95	924
2003.28	931.5
2001.6	925
1999.93	929.5
1998.26	919
1996.58	926.5
1994.91	914.5
1993.24	900.5
1991.56	884.5
1989.89	885
1988.21	895
1986.53	888.5
1984.86	915.5
1983.18	884.5
1981.5	876.5
1979.82	892.5
1978.15	870
1976.47	844
1974.79	866
1973.11	860.5
1971.43	854.5
1969.75	850
1968.07	865
1966.38	863
1964.7	839.5
1963.02	852
1961.34	846
1959.66	848.5
1957.97	856.5
1956.29	832
1954.6	821.5
1952.92	823
1951.23	820
1949.55	823
1947.86	807.5
1946.18	837.5
1944.49	814
1942.8	816.5
1941.11	816
1939.43	787.5
1937.74	809
1936.05	784.5
1934.36	782
1932.67	775.5
1930.98	754.5
1929.29	773
1927.6	784
1925.91	769
1924.21	772
1922.52	767
1920.83	784
1919.14	755
1917.44	739.5
1915.75	755.5
1914.05	746.5
1912.36	735.5
1910.66	755
1908.97	760
1907.27	769.5
1905.58	722.5
1903.88	725.5
1902.18	734
1900.48	729
1898.79	727
1897.09	707
1895.39	709
1893.69	695
1891.99	704.5
1890.29	683.5
1888.59	705.5
1886.89	708
1885.18	695
1883.48	695.5
1881.78	698
1880.08	694.5
1878.37	653
1876.67	652
1874.96	643
1873.26	654.5
1871.55	663.5
1869.85	646
1868.14	662.5
1866.44	660
1864.73	650
1863.02	626
1861.32	640.5
1859.61	636.5
1857.9	638.5
1856.19	618.5
1854.48	633.5
1852.77	620.5
1851.06	632
1849.35	635.5
1847.64	623.5
1845.93	648.5
1844.21	648.5
1842.5	608
1840.79	623
1839.08	616
1837.36	585
1835.65	587
1833.93	593
1832.22	596
1830.5	597
1828.79	572
1827.07	603.5
1825.36	580
1823.64	597
1821.92	589
1820.2	575
1818.48	606.5
1816.77	582
1815.05	603.5
1813.33	566
1811.61	565
1809.89	580
1808.16	585
1806.44	558
1804.72	582.5
1803	552
1801.28	559
1799.55	557
1797.83	546.5
1796.11	525.5
1794.38	550
1792.66	576
1790.93	542.5
1789.21	559
1787.48	552.5
1785.75	547
1784.03	564.5
1782.3	543.5
1780.57	537
1778.84	512
1777.11	515
1775.38	543
1773.66	530.5
1771.93	558.5
1770.19	545.5
1768.46	540
1766.73	555.5
1765	577
1763.27	553.5
1761.54	575.5
1759.8	594
1758.07	611.5
1756.34	595.5
1754.6	636.5
1752.87	638
1751.13	663.5
1749.4	700
1747.66	704
1745.92	669.5
1744.19	688.5
1742.45	673
1740.71	651.5
1738.97	615
1737.23	581.5
1735.49	597
1733.75	567
1732.01	574
1730.27	567.5
1728.53	548
1726.79	544
1725.05	541.5
1723.31	534.5
1721.57	504.5
1719.82	493
1718.08	505.5
1716.34	491.5
1714.59	489.5
1712.85	494.5
1711.1	480.5
1709.36	490
1707.61	491
1705.86	502.5
1704.12	476.5
1702.37	489.5
1700.62	492.5
1698.87	452.5
1697.12	454.5
1695.37	460.5
1693.62	471.5
1691.87	489
1690.12	474.5
1688.37	475.5
1686.62	477.5
1684.87	460
1683.12	480.5
1681.36	485
1679.61	503
1677.86	503
1676.1	504
1674.35	524
1672.59	556
1670.84	593
1669.08	638.5
1667.33	662
1665.57	709.5
1663.81	755
1662.06	846
1660.3	906.5
1658.54	960.5
1656.78	948.5
1655.02	933.5
1653.26	899
1651.5	823.5
1649.74	770.5
1647.98	697
1646.22	642
1644.46	594
1642.7	557.5
1640.93	518.5
1639.17	511.5
1637.41	466
1635.64	460.5
1633.88	453.5
1632.11	453
1630.35	462
1628.58	458.5
1626.81	440
1625.05	447
1623.28	428
1621.51	432.5
1619.75	415
1617.98	393
1616.21	410
1614.44	419
1612.67	411
1610.9	417.5
1609.13	410.5
1607.36	416.5
1605.58	416.5
1603.81	404.5
1602.04	386.5
1600.27	407
1598.49	391
1596.72	384
1594.95	381.5
1593.17	389.5
1591.4	395
1589.62	388.5
1587.84	391.5
1586.07	381
1584.29	406
1582.51	387.5
1580.74	394.5
1578.96	395.5
1577.18	381
1575.4	384
1573.62	375.5
1571.84	378.5
1570.06	386.5
1568.28	386.5
1566.5	377.5
1564.72	381
1562.93	381
1561.15	371.5
1559.37	383
1557.58	376
1555.8	378.5
1554.02	376
1552.23	368
1550.45	384.5
1548.66	379
1546.87	378
1545.09	396.5
1543.3	367.5
1541.51	385
1539.72	371
1537.94	369
1536.15	368
1534.36	377.5
1532.57	371
1530.78	364
1528.99	385
1527.2	394
1525.4	392
1523.61	408
1521.82	386
1520.03	382
1518.23	390
1516.44	370
1514.65	363
1512.85	382.5
1511.06	386.5
1509.26	386.5
1507.46	383
1505.67	407
1503.87	430
1502.07	410
1500.28	441
1498.48	421.5
1496.68	422.5
1494.88	448
1493.08	455.5
1491.28	460
1489.48	463.5
1487.68	476
1485.88	514.5
1484.08	540
1482.27	593.5
1480.47	596
1478.67	629.5
1476.86	676
1475.06	702.5
1473.25	766
1471.45	844.5
1469.64	937
1467.84	1022.5
1466.03	1085.5
1464.23	1211
1462.42	1268.5
1460.61	1348
1458.8	1404
1456.99	1469.5
1455.18	1500.5
1453.37	1559.5
1451.56	1567
1449.75	1678
1447.94	1741
1446.13	1830.5
1444.32	1858
1442.51	1961.5
1440.7	1927
1438.88	1892.5
1437.07	1791
1435.26	1588
1433.44	1388.5
1431.63	1213
1429.81	1049
1427.99	924
1426.18	865
1424.36	779.5
1422.54	722.5
1420.73	704
1418.91	671.5
1417.09	623
1415.27	592.5
1413.45	556.5
1411.63	514
1409.81	495
1407.99	484.5
1406.17	494
1404.35	471
1402.53	472.5
1400.7	453.5
1398.88	437
1397.06	422
1395.23	404
1393.41	407.5
1391.58	377
1389.76	383
1387.93	405
1386.11	396
1384.28	403.5
1382.45	427
1380.62	419
1378.8	415
1376.97	448.5
1375.14	454
1373.31	450
1371.48	451.5
1369.65	469.5
1367.82	447
1365.99	456
1364.16	465
1362.32	458.5
1360.49	457
1358.66	461
1356.82	463
1354.99	448
1353.16	464.5
1351.32	464.5
1349.48	476
1347.65	470.5
1345.81	473.5
1343.98	472.5
1342.14	481.5
1340.3	479
1338.46	513
1336.62	517.5
1334.79	513
1332.95	544
1331.11	564.5
1329.27	590
1327.42	645.5
1325.58	687.5
1323.74	708
1321.9	788
1320.06	822
1318.21	890
1316.37	970
1314.53	1029.5
1312.68	1107
1310.84	1180
1308.99	1254.5
1307.15	1314
1305.3	1364
1303.45	1470.5
1301.61	1456
1299.76	1435
1297.91	1417.5
1296.06	1279
1294.21	1159
1292.36	1056.5
1290.51	965.5
1288.66	894.5
1286.81	861
1284.96	842.5
1283.11	805.5
1281.26	809
1279.4	791
1277.55	811
1275.7	835.5
1273.84	869
1271.99	843
1270.13	852.5
1268.28	860.5
1266.42	809
1264.56	839.5
1262.71	817.5
1260.85	798.5
1258.99	756
1257.13	740.5
1255.27	715
1253.41	686.5
1251.56	647
1249.7	627
1247.83	573
1245.97	563
1244.11	555.5
1242.25	512
1240.39	512.5
1238.52	486.5
1236.66	466
1234.8	481.5
1232.93	481
1231.07	479
1229.2	465
1227.34	451.5
1225.47	425.5
1223.6	410.5
1221.74	389
1219.87	404
1218	380
1216.13	392
1214.26	403.5
1212.39	404
1210.53	393.5
1208.65	388
1206.78	388.5
1204.91	380
1203.04	388
1201.17	395
1199.3	372
1197.42	391
1195.55	369
1193.68	381
1191.8	385
1189.93	392
1188.05	399.5
1186.17	395
1184.3	397
1182.42	391
1180.54	373.5
1178.67	371
1176.79	391
1174.91	387
1173.03	400.5
1171.15	413
1169.27	402
1167.39	392.5
1165.51	400
1163.63	400.5
1161.75	390.5
1159.86	402.5
1157.98	396.5
1156.1	408.5
1154.21	391.5
1152.33	408.5
1150.44	420.5
1148.56	431
1146.67	439
1144.79	428.5
1142.9	466.5
1141.01	456
1139.12	464
1137.24	446.5
1135.35	487
1133.46	545
1131.57	604
1129.68	630.5
1127.79	665.5
1125.9	684
1124.01	683
1122.12	655.5
1120.22	690
1118.33	654
1116.44	611
1114.54	622
1112.65	606.5
1110.75	595
1108.86	624
1106.96	641.5
1105.07	680
1103.17	704.5
1101.27	765
1099.38	809
1097.48	833
1095.58	879
1093.68	909
1091.78	956.5
1089.88	995.5
1087.98	1034.5
1086.08	1070.5
1084.18	1072
1082.28	1083.5
1080.38	1091.5
1078.47	1069
1076.57	1039
1074.67	1004
1072.76	1004
1070.86	987
1068.95	1031
1067.05	1067.5
1065.14	1068.5
1063.24	1058.5
1061.33	1016.5
1059.42	945
1057.51	846.5
1055.6	780
1053.7	755.5
1051.79	704.5
1049.88	712.5
1047.97	650
1046.06	673
1044.14	674.5
1042.23	670
1040.32	668
1038.41	676.5
1036.5	666
1034.58	650.5
1032.67	663
1030.75	648.5
1028.84	625
1026.92	639.5
1025.01	633.5
1023.09	614.5
1021.17	617
1019.26	641
1017.34	634.5
1015.42	606.5
1013.5	611
1011.58	598
1009.66	563.5
1007.74	570
1005.82	560
1003.9	532
1001.98	515
1000.06	557
998.134	533.5
996.212	531
994.288	530
992.364	545
990.44	545
988.515	547
986.589	583.5
984.663	562.5
982.737	597.5
980.81	607.5
978.883	608
976.955	659.5
975.027	686.5
973.098	701.5
971.169	704
969.239	676
967.308	672
965.378	653.5
963.447	629.5
961.516	645
959.583	634
957.65	645
955.718	663
953.784	651
951.85	666
949.916	680
947.981	694
946.045	695
944.109	696
942.173	712.5
940.236	691.5
938.298	725.5
936.36	705
934.422	691
932.484	694
930.544	721.5
928.604	704
926.664	713
924.724	736
922.782	737.5
920.84	717
918.898	715
916.955	701.5
915.012	712
913.068	716.5
911.124	713.5
909.18	713.5
907.235	721.5
905.289	725
903.343	742
901.397	752
899.45	742
897.502	799
895.554	839
893.605	853.5
891.657	873.5
889.707	904
887.758	890
885.807	862
883.856	885
881.905	902.5
879.953	908.5
878.001	916.5
876.048	944.5
874.094	929.5
872.14	913.5
870.186	929
868.232	901.5
866.276	903
864.321	912.5
862.365	869.5
860.408	873
858.451	906
856.493	883
854.535	885
852.576	871
850.617	850.5
848.658	872.5
846.698	850
844.737	862
842.776	843
840.814	841
838.852	802
836.89	788
834.927	787.5
832.963	732
830.999	720.5
829.035	669.5
827.07	654
825.105	614
823.139	620.5
821.172	587.5
819.206	588.5
817.238	563
815.27	574.5
813.301	566.5
811.333	535
809.363	531
807.394	495.5
805.424	486
803.453	460.5
801.482	450
799.509	434.5
797.538	423.5
795.565	418.5
793.592	408.5
791.618	417
789.643	375
787.669	400
785.693	381.5
783.718	389
781.742	383.5
779.765	385
777.788	387
775.811	398.5
773.832	400.5
771.853	385
769.875	387
767.895	396.5
765.915	398.5
763.934	396
761.953	375
759.972	365
757.99	371
756.007	355
754.024	359
752.041	379.5
750.056	373.5
748.072	399
746.087	380.5
744.102	377.5
742.116	394
740.13	369.5
738.143	381.5
736.155	390.5
734.167	388.5
732.179	373
730.19	396
728.2	397
726.21	409
724.22	410
722.229	395
720.237	383
718.246	373.5
716.253	366
714.26	342.5
712.267	346
710.273	324.5
708.279	322
706.284	311.5
704.289	310
702.293	299
700.296	329
698.3	337
696.303	306
694.305	297
692.307	281
690.307	274
688.308	281.5
686.309	286.5
684.308	292.5
682.308	289.5
680.306	317
678.304	313.5
676.302	293
674.3	303
672.296	308.5
670.293	295.5
668.289	282.5
666.284	285
664.278	288
662.273	302
660.266	299
658.26	293
656.252	325.5
654.244	327
652.237	325
650.227	319
648.218	324.5
646.209	323
644.198	311
642.188	326
640.177	319
638.165	341.5
636.153	345
634.14	338.5
632.128	357
630.113	371
628.099	354
626.085	353
624.07	366.5
622.054	354.5
620.038	365.5
618.021	372.5
616.004	390
613.986	394.5
611.968	393
609.949	407
607.93	417
605.911	414
603.891	414
601.87	416.5
599.848	387
597.827	398
595.805	376
593.782	385
591.759	380
589.735	388.5
587.711	380
585.687	373
583.661	367
581.636	370
579.609	365.5
577.583	359
575.555	342.5
573.527	337.5
571.5	336.5
569.471	329.5
567.441	347
565.412	348.5
563.382	343
561.351	350.5
559.32	365.5
557.289	349
555.257	371.5
553.223	360
551.19	381
549.157	383.5
547.122	415
545.088	427
543.053	434
541.017	448
538.981	500
536.943	546
534.907	618.5
532.869	722
530.831	926
528.792	1286
526.752	1896
524.713	2634.5
522.673	3209.5
520.632	3119.5
518.591	2630
516.549	2009.5
514.507	1413
512.464	1025
510.42	797
508.377	656.5
506.332	579.5
504.288	538.5
502.242	519
500.196	518
498.15	500
496.104	501.5
494.056	497
492.008	489.5
489.96	500
487.911	463
485.862	483
483.812	458
481.761	478
479.71	474.5
477.659	482
475.607	472
473.555	484.5
471.502	463
469.448	493
467.395	476
465.34	490
463.285	471
461.23	475
459.174	475
457.118	474.5
455.061	471.5
453.003	467
450.945	483.5
448.887	492
446.828	509
444.768	517.5
442.708	506.5
440.647	515.5
438.587	513
436.525	517
434.463	491
432.4	523
430.337	526
428.274	543.5
426.21	526.5
424.145	516
422.079	562
420.014	553.5
417.948	553.5
415.882	553
413.814	546
411.746	559
409.679	564
407.609	566.5
405.54	573
403.47	574
401.401	577
399.329	576
397.258	575.5
395.187	567
393.114	581.5
391.041	568
388.968	557
386.895	562
384.82	580.5
382.745	585
380.67	564.5
378.594	590.5
376.517	597
374.44	604
372.363	599.5
370.286	586
368.207	611
366.128	606.5
364.049	613
361.969	594.5
359.888	619
357.807	616
355.725	639
353.643	643
351.561	627
349.477	644
347.394	636.5
345.31	646
343.226	624
341.141	643
339.055	629
336.968	649
334.882	638
332.795	678.5
330.707	684.5
328.618	699
326.53	687
324.44	705
322.351	703
320.26	721
318.17	733.5
316.078	737
313.987	728.5
311.895	773
309.802	788.5
307.708	816
305.614	847
303.52	856.5
301.425	854
299.329	877
297.233	852
295.137	851
293.039	868
290.942	862
288.844	862.5
286.745	866.5
284.647	873
282.546	914
280.446	877.5
278.346	919.5
276.245	942.5
274.143	929
272.041	969.5
269.939	989.5
267.835	969
265.731	1004
263.627	1020
261.522	1037
259.417	1024
257.311	1065
255.204	1087.5
253.098	1112
250.99	1114
248.882	1152
246.774	1154.5
244.664	1147
242.555	1183.5
240.445	1207
238.334	1186
236.223	1246
234.112	1224
232	1273
229.888	1292
227.775	1301
225.661	1320
223.546	1352
221.431	1345.5
219.316	1347
217.201	1370
215.084	1379
212.967	1367.5
210.85	1389
208.732	1417.5
206.614	1377.5
204.495	1393
202.375	1404
200.256	1408.5
198.135	1367
196.014	1380
193.893	1364
191.771	1378
189.648	1383
187.525	1361
185.401	1355
183.277	1388.5
181.152	1413
179.027	1411
176.901	1405
174.775	1394
172.648	1411
170.521	1458
168.393	1450.5
166.265	1444
164.136	1503
162.007	1512.5
159.876	1561.5
157.746	1550
155.615	1604.5
153.483	1608
151.351	1682.5
149.219	1705
147.086	1752
144.952	1776
142.818	1816
140.684	1891
138.548	1949
136.413	2036.5
134.276	2083.5
132.139	2164
130.002	2226
127.864	2300.5
125.725	2405
123.587	2468
121.447	2537.5
119.307	2638
117.166	2751
115.026	2892.5
112.885	2979.5
110.743	3090
108.6	3233.5
106.456	3231
104.313	3243.5
102.169	3182.5
100.023	3077.5
97.8789	2879
95.7328	2608.5
93.5869	2266
91.4392	1919
89.2919	1599.5
87.1447	1259
84.9959	973.5
