3528.51	69
3527.23	68.5
3525.95	63.5
3524.67	82.5
3523.39	75
3522.1	77
3520.82	72.5
3519.54	74
3518.26	78.5
3516.97	80.5
3515.69	72.5
3514.4	72
3513.12	82.5
3511.84	76.5
3510.55	83
3509.26	79
3507.98	76.5
3506.69	82.5
3505.41	76.5
3504.12	85.5
3502.83	78
3501.54	82
3500.26	85.5
3498.97	84
3497.68	89.5
3496.39	88
3495.1	92.5
3493.81	98
3492.52	90.5
3491.23	91.5
3489.94	96.5
3488.65	99.5
3487.36	100.5
3486.07	103.5
3484.78	105
3483.49	103.5
3482.19	111
3480.9	103.5
3479.61	104.5
3478.31	118.5
3477.02	112.5
3475.73	116
3474.43	120
3473.14	125
3471.84	119
3470.54	117
3469.25	109
3467.95	117.5
3466.66	124
3465.36	120.5
3464.06	119
3462.76	120.5
3461.46	132.5
3460.17	127.5
3458.87	122
3457.57	127.5
3456.27	129
3454.97	134.5
3453.67	137.5
3452.37	131.5
3451.07	135
3449.77	136.5
3448.47	142.5
3447.16	139.5
3445.86	131
3444.56	145.5
3443.26	137
3441.95	143.5
3440.65	155
3439.35	150
3438.04	161.5
3436.74	157
3435.43	164.5
3434.13	168.5
3432.82	162.5
3431.52	174
3430.21	176
3428.9	174
3427.6	186.5
3426.29	186
3424.98	185.5
3423.67	193.5
3422.36	199.5
3421.06	199.5
3419.75	201.5
3418.44	200
3417.13	204.5
3415.82	209.5
3414.51	210.5
3413.2	210.5
3411.88	217.5
3410.57	217.5
3409.26	221
3407.95	220
3406.64	218
3405.32	231
3404.01	232.5
3402.7	215.5
3401.38	226.5
3400.07	220
3398.75	231.5
3397.44	226.5
3396.12	248.5
3394.81	244
3393.49	244
3392.18	250
3390.86	243.5
3389.54	237
3388.23	257
3386.91	248
3385.59	255.5
3384.27	245.5
3382.95	259.5
3381.63	261
3380.31	265
3378.99	263
3377.67	280
3376.35	281
3375.03	290.5
3373.71	267
3372.39	279
3371.07	279
3369.75	284.5
3368.42	267
3367.1	299.5
3365.78	299
3364.45	301.5
3363.13	288
3361.81	297.5
3360.48	306
3359.16	303.5
3357.83	300.5
3356.51	308.5
3355.18	305.5
3353.85	305.5
3352.53	305.5
3351.2	311.5
3349.87	307.5
3348.54	305.5
3347.22	325.5
3345.89	301
3344.56	313.5
3343.23	296.5
3341.9	310
3340.57	317
3339.24	313
3337.91	317
3336.58	313
3335.25	329
3333.92	330
3332.58	315
3331.25	340
3329.92	328
3328.59	327
3327.25	326
3325.92	330
3324.58	323.5
3323.25	337.5
3321.92	340.5
3320.58	330
3319.25	343
3317.91	344
3316.57	343
3315.24	354
3313.9	351.5
3312.56	348
3311.23	339
3309.89	359
3308.55	357.5
3307.21	357
3305.87	349
3304.53	370
3303.19	354.5
3301.85	355.5
3300.51	351.5
3299.17	373
3297.83	374.5
3296.49	370
3295.15	388.5
3293.81	385
3292.46	367
3291.12	373
3289.78	380
3288.43	371
3287.09	383.5
3285.75	396
3284.4	392
3283.06	385
3281.71	389
3280.37	385
3279.02	397.5
3277.67	405
3276.33	398.5
3274.98	398
3273.63	394.5
3272.28	404
3270.94	395.5
3269.59	397.5
3268.24	422
3266.89	417.5
3265.54	426
3264.19	430.5
3262.84	429
3261.49	430
3260.14	456
3258.79	457.5
3257.44	439
3256.08	467
3254.73	483
3253.38	486
3252.03	505
3250.67	517
3249.32	523.5
3247.96	539.5
3246.61	559.5
3245.26	559
3243.9	573.5
3242.54	599.5
3241.19	626.5
3239.83	628.5
3238.48	652
3237.12	672.5
3235.76	682
3234.41	682.5
3233.05	714
3231.69	711.5
3230.33	705
3228.97	760
3227.61	755.5
3226.25	785.5
3224.89	789.5
3223.53	816
3222.17	822.5
3220.81	819.5
3219.45	818.5
3218.09	846.5
3216.72	860
3215.36	855
3214	880.5
3212.63	901
3211.27	887
3209.91	911
3208.54	904
3207.18	883
3205.81	916.5
3204.45	923.5
3203.08	925.5
3201.71	923
3200.35	915.5
3198.98	938.5
3197.61	937.5
3196.25	943
3194.88	947
3193.51	959.5
3192.14	975.5
3190.77	970
3189.4	972.5
3188.03	964
3186.66	974.5
3185.29	975.5
3183.92	989
3182.55	992.5
3181.18	985.5
3179.81	1005.5
3178.44	1029.5
3177.06	1012
3175.69	1028.5
3174.32	1019
3172.94	1045
3171.57	1063.5
3170.2	1080.5
3168.82	1089
3167.45	1075
3166.07	1102.5
3164.69	1087
3163.32	1099.5
3161.94	1107.5
3160.56	1120.5
3159.19	1113.5
3157.81	1149.5
3156.43	1139.5
3155.05	1134.5
3153.67	1153.5
3152.3	1171
3150.92	1156
3149.54	1186
3148.16	1189.5
3146.78	1192
3145.4	1210.5
3144.01	1203
3142.63	1209
3141.25	1199
3139.87	1208.5
3138.49	1213
3137.1	1246.5
3135.72	1256.5
3134.34	1255.5
3132.95	1278
3131.57	1286
3130.18	1296.5
3128.8	1306
3127.41	1317.5
3126.03	1328
3124.64	1294
3123.25	1327
3121.87	1344.5
3120.48	1354
3119.09	1365
3117.7	1341.5
3116.32	1388
3114.93	1353.5
3113.54	1368.5
3112.15	1383
3110.76	1390.5
3109.37	1393
3107.98	1410
3106.59	1424.5
3105.2	1405.5
3103.8	1416
3102.41	1437
3101.02	1445
3099.63	1436
3098.23	1455
3096.84	1471
3095.45	1455.5
3094.05	1463.5
3092.66	1492
3091.26	1485.5
3089.87	1505.5
3088.47	1495.5
3087.08	1512.5
3085.68	1487.5
3084.28	1488
3082.89	1499
3081.49	1514.5
3080.09	1535
3078.69	1498.5
3077.3	1481.5
3075.9	1536
3074.5	1520
3073.1	1539.5
3071.7	1536
3070.3	1510
3068.9	1558.5
3067.5	1550
3066.09	1569.5
3064.69	1543.5
3063.29	1557
3061.89	1552
3060.48	1574.5
3059.08	1568
3057.68	1578
3056.27	1595
3054.87	1571.5
3053.46	1599.5
3052.06	1598.5
3050.65	1617.5
3049.25	1620
3047.84	1613
3046.44	1648
3045.03	1615.5
3043.62	1637
3042.21	1597.5
3040.81	1645
3039.4	1660.5
3037.99	1668.5
3036.58	1637.5
3035.17	1639
3033.76	1688.5
3032.35	1662
3030.94	1697
3029.53	1708
3028.12	1675
3026.71	1722
3025.29	1692.5
3023.88	1701
3022.47	1715
3021.06	1715.5
3019.64	1732.5
3018.23	1720.5
3016.82	1722
3015.4	1719
3013.99	1733
3012.57	1735.5
3011.15	1740.5
3009.74	1752.5
3008.32	1765
3006.91	1779
3005.49	1781
3004.07	1792
3002.65	1794
3001.24	1802.5
2999.82	1821.5
2998.4	1794
2996.98	1810.5
2995.56	1817.5
2994.14	1857
2992.72	1814.5
2991.3	1863.5
2989.88	1847
2988.46	1853.5
2987.03	1858
2985.61	1866
2984.19	1868
2982.77	1902.5
2981.34	1891.5
2979.92	1946.5
2978.49	1945.5
2977.07	1967
2975.65	1943
2974.22	1997
2972.79	2013.5
2971.37	2010
2969.94	2017.5
2968.52	2035.5
2967.09	2040.5
2965.66	2071
2964.23	2068
2962.81	2113
2961.38	2068
2959.95	2122.5
2958.52	2140
2957.09	2140.5
2955.66	2116.5
2954.23	2132
2952.8	2156.5
2951.37	2147
2949.94	2219.5
2948.5	2197
2947.07	2196.5
2945.64	2233
2944.21	2241.5
2942.77	2275
2941.34	2276.5
2939.91	2278.5
2938.47	2311.5
2937.04	2332
2935.6	2361.5
2934.17	2346.5
2932.73	2382
2931.29	2389.5
2929.86	2391
2928.42	2428
2926.98	2462
2925.55	2467
2924.11	2475.5
2922.67	2503.5
2921.23	2489
2919.79	2514.5
2918.35	2533.5
2916.91	2519.5
2915.47	2532.5
2914.03	2557
2912.59	2530.5
2911.15	2561.5
2909.71	2552.5
2908.26	2544.5
2906.82	2591
2905.38	2585
2903.94	2599
2902.49	2620
2901.05	2625.5
2899.6	2645.5
2898.16	2625
2896.71	2616
2895.27	2669
2893.82	2640
2892.38	2672.5
2890.93	2660
2889.48	2671
2888.03	2680.5
2886.59	2688.5
2885.14	2710.5
2883.69	2712
2882.24	2688.5
2880.79	2659
2879.34	2677
2877.89	2685
2876.44	2682.5
2874.99	2674
2873.54	2643.5
2872.09	2702
2870.64	2697
2869.18	2699.5
2867.73	2711.5
2866.28	2687.5
2864.83	2651.5
2863.37	2677
2861.92	2720
2860.46	2689.5
2859.01	2729
2857.55	2705.5
2856.1	2701.5
2854.64	2718.5
2853.19	2742
2851.73	2745.5
2850.27	2680.5
2848.81	2656.5
2847.36	2653.5
2845.9	2660
2844.44	2637
2842.98	2612.5
2841.52	2578.5
2840.06	2526.5
2838.6	2495
2837.14	2418.5
2835.68	2397.5
2834.22	2396.5
2832.76	2389.5
2831.3	2389
2829.83	2330
2828.37	2314.5
2826.91	2287.5
2825.44	2299
2823.98	2303
2822.52	2289
2821.05	2247.5
2819.59	2237.5
2818.12	2226.5
2816.66	2244
2815.19	2208
2813.72	2186.5
2812.26	2175.5
2810.79	2190
2809.32	2192
2807.85	2164
2806.38	2165
2804.92	2151
2803.45	2127.5
2801.98	2133.5
2800.51	2132.5
2799.04	2136.5
2797.57	2122.5
2796.1	2145
2794.62	2114.5
2793.15	2093
2791.68	2112
2790.21	2105.5
2788.73	2110.5
2787.26	2117
2785.79	2114.5
2784.31	2109
2782.84	2097
2781.36	2093
2779.89	2111.5
2778.41	2106
2776.94	2144
2775.46	2112.5
2773.99	2144.5
2772.51	2107
2771.03	2128.5
2769.55	2155
2768.07	2136.5
2766.6	2133.5
2765.12	2128.5
2763.64	2120
2762.16	2153.5
2760.68	2157.5
2759.2	2138
2757.72	2128.5
2756.24	2162
2754.75	2126
2753.27	2115
2751.79	2115.5
2750.31	2142.5
2748.82	2115
2747.34	2153.5
2745.86	2150.5
2744.37	2116.5
2742.89	2130
2741.4	2106
2739.92	2118
2738.43	2129
2736.94	2131.5
2735.46	2142
2733.97	2129
2732.48	2110
2731	2154
2729.51	2129.5
2728.02	2151
2726.53	2141
2725.04	2106.5
2723.55	2152.5
2722.06	2133
2720.57	2131.5
2719.08	2164
2717.59	2116
2716.1	2153.5
2714.61	2112
2713.11	2120.5
2711.62	2120.5
2710.13	2150
2708.64	2132.5
2707.14	2127
2705.65	2125
2704.15	2110.5
2702.66	2126
2701.16	2094
2699.67	2128
2698.17	2098.5
2696.67	2076.5
2695.18	2097
2693.68	2071.5
2692.18	2091
2690.69	2086.5
2689.19	2094.5
2687.69	2066.5
2686.19	2058.5
2684.69	2067
2683.19	2050.5
2681.69	2057.5
2680.19	2055
2678.69	2044
2677.19	2036.5
2675.68	2054
2674.18	2016
2672.68	2067.5
2671.18	2059
2669.67	2020
2668.17	2006.5
2666.66	2016.5
2665.16	2030
2663.66	2010.5
2662.15	2014
2660.64	2027
2659.14	2019
2657.63	2023
2656.13	2005.5
2654.62	1977
2653.11	1980.5
2651.6	2007
2650.09	2013.5
2648.58	2007
2647.08	1981.5
2645.57	1952.5
2644.06	1982
2642.55	1972
2641.04	1977.5
2639.52	1954
2638.01	1971
2636.5	1938.5
2634.99	1954
2633.48	1959.5
2631.96	1955
2630.45	1944
2628.94	1914.5
2627.42	1934.5
2625.91	1919
2624.39	1912
2622.88	1912.5
2621.36	1909
2619.85	1910
2618.33	1916.5
2616.81	1939
2615.3	1922.5
2613.78	1895.5
2612.26	1893
2610.74	1913
2609.22	1907.5
2607.7	1910.5
2606.18	1899
2604.66	1914.5
2603.14	1869.5
2601.62	1881
2600.1	1882.5
2598.58	1831
2597.06	1873
2595.54	1837.5
2594.01	1823
2592.49	1862
2590.97	1822
2589.44	1823.5
2587.92	1832
2586.39	1829.5
2584.87	1817.5
2583.34	1834
2581.82	1820.5
2580.29	1818.5
2578.76	1795
2577.24	1807.5
2575.71	1794.5
2574.18	1816
2572.65	1795.5
2571.13	1804.5
2569.6	1811.5
2568.07	1803.5
2566.54	1777.5
2565.01	1790.5
2563.48	1773
2561.95	1798
2560.42	1784
2558.88	1775.5
2557.35	1765.5
2555.82	1779
2554.29	1753.5
2552.75	1749.5
2551.22	1756
2549.69	1732
2548.15	1735.5
2546.62	1731.5
2545.08	1719.5
2543.55	1720
2542.01	1720
2540.47	1755
2538.94	1720.5
2537.4	1716
2535.86	1701.5
2534.33	1695
2532.79	1707.5
2531.25	1724.5
2529.71	1694
2528.17	1675
2526.63	1651.5
2525.09	1674.5
2523.55	1682.5
2522.01	1642
2520.47	1656
2518.92	1686.5
2517.38	1640.5
2515.84	1677
2514.3	1648.5
2512.75	1656
2511.21	1628
2509.67	1622
2508.12	1612.5
2506.58	1627
2505.03	1626
2503.49	1617
2501.94	1605.5
2500.39	1595.5
2498.85	1607.5
2497.3	1606.5
2495.75	1566
2494.2	1582
2492.65	1548.5
2491.11	1579
2489.56	1537
2488.01	1560
2486.46	1546
2484.91	1554
2483.36	1548
2481.8	1535
2480.25	1534
2478.7	1498
2477.15	1537
2475.6	1543
2474.04	1532.5
2472.49	1502.5
2470.93	1477.5
2469.38	1483
2467.83	1507
2466.27	1475.5
2464.71	1489
2463.16	1444
2461.6	1473
2460.05	1420
2458.49	1454.5
2456.93	1430
2455.37	1450
2453.81	1436.5
2452.26	1424.5
2450.7	1460
2449.14	1426
2447.58	1438
2446.02	1424
2444.46	1418
2442.9	1414.5
2441.33	1380
2439.77	1418
2438.21	1374
2436.65	1414
2435.08	1400
2433.52	1382.5
2431.96	1394.5
2430.39	1371
2428.83	1345.5
2427.26	1370
2425.7	1366
2424.13	1390
2422.56	1366
2421	1355.5
2419.43	1361.5
2417.86	1341.5
2416.3	1347.5
2414.73	1337.5
2413.16	1342
2411.59	1355
2410.02	1307
2408.45	1316
2406.88	1317.5
2405.31	1339
2403.74	1351
2402.17	1322.5
2400.6	1327
2399.02	1317.5
2397.45	1314.5
2395.88	1317
2394.3	1315
2392.73	1300
2391.16	1299.5
2389.58	1300.5
2388.01	1308.5
2386.43	1288.5
2384.86	1312.5
2383.28	1273.5
2381.7	1279
2380.13	1291
2378.55	1274
2376.97	1309
2375.39	1277.5
2373.81	1283
2372.23	1274
2370.65	1276
2369.07	1267.5
2367.49	1258
2365.91	1246
2364.33	1280
2362.75	1261.5
2361.17	1258.5
2359.59	1256.5
2358.01	1264
2356.42	1222
2354.84	1225.5
2353.25	1240.5
2351.67	1209
2350.09	1223.5
2348.5	1247
2346.92	1238
2345.33	1231
2343.74	1223
2342.16	1202
2340.57	1272
2338.98	1218
2337.39	1228.5
2335.81	1181.5
2334.22	1231.5
2332.63	1227
2331.04	1223
2329.45	1193
2327.86	1202
2326.27	1208.5
2324.68	1160
2323.09	1196.5
2321.49	1203
2319.9	1181.5
2318.31	1179
2316.72	1187
2315.12	1177
2313.53	1171.5
2311.93	1181
2310.34	1161
2308.74	1153
2307.15	1177.5
2305.55	1156.5
2303.96	1144
2302.36	1157
2300.76	1135.5
2299.17	1104
2297.57	1121.5
2295.97	1116
2294.37	1114.5
2292.77	1130.5
2291.17	1116.5
2289.57	1120
2287.97	1102
2286.37	1111.5
2284.77	1103.5
2283.17	1116
2281.57	1116
2279.96	1128.5
2278.36	1111.5
2276.76	1110.5
2275.15	1062.5
2273.55	1086.5
2271.95	1091.5
2270.34	1075
2268.74	1074
2267.13	1099.5
2265.52	1049
2263.92	1071.5
2262.31	1068.5
2260.7	1034.5
2259.1	1053.5
2257.49	1065
2255.88	1027.5
2254.27	1046.5
2252.66	1033
2251.05	1049.5
2249.44	1046
2247.83	1040.5
2246.22	1058
2244.61	1030
2243	1041.5
2241.39	1048
2239.77	1006.5
2238.16	1031
2236.55	1012.5
2234.93	1008.5
2233.32	1007.5
2231.7	1008
2230.09	1012.5
2228.47	988
2226.86	983.5
2225.24	981.5
2223.63	965
2222.01	973.5
2220.39	963.5
2218.77	978
2217.16	962.5
2215.54	973
2213.92	978
2212.3	951
2210.68	956.5
2209.06	950
2207.44	957
2205.82	960.5
2204.19	969
2202.57	966.5
2200.95	934
2199.33	935
2197.7	930.5
2196.08	940.5
2194.46	938.5
2192.83	920
2191.21	924.5
2189.58	936
2187.96	925.5
2186.33	933
2184.7	929.5
2183.08	919.5
2181.45	909
2179.82	923
2178.19	910
2176.57	891.5
2174.94	904
2173.31	893
2171.68	894
2170.05	906.5
2168.42	888.5
2166.79	880.5
2165.16	881
2163.52	908
2161.89	881
2160.26	868
2158.63	881
2156.99	866.5
2155.36	858
2153.73	855.5
2152.09	860
2150.46	855.5
2148.82	829
2147.18	846
2145.55	860.5
2143.91	841.5
2142.27	834.5
2140.64	838.5
2139	827
2137.36	839.5
2135.72	835.5
2134.08	833
2132.44	816.5
2130.8	827.5
2129.16	798.5
2127.52	782
2125.88	806
2124.24	814
2122.6	794
2120.95	781.5
2119.31	777
2117.67	776
2116.02	798
2114.38	791.5
2112.74	780.5
2111.09	780.5
2109.45	776.5
2107.8	769.5
2106.15	757.5
2104.51	779.5
2102.86	755.5
2101.21	768.5
2099.56	763.5
2097.92	770.5
2096.27	755
2094.62	739
2092.97	744.5
2091.32	763.5
2089.67	749
2088.02	749
2086.37	735
2084.72	752.5
2083.06	724
2081.41	754
2079.76	736
2078.1	737.5
2076.45	736.5
2074.8	738.5
2073.14	709.5
2071.49	742
2069.83	727
2068.18	711
2066.52	742.5
2064.86	734.5
2063.21	714
2061.55	731.5
2059.89	697.5
2058.23	718
2056.57	717
2054.92	727
2053.26	713
2051.6	708.5
2049.94	696.5
2048.27	712
2046.61	702
2044.95	685.5
2043.29	682
2041.63	689
2039.97	682
2038.3	698
2036.64	660
2034.97	680.5
2033.31	676.5
2031.64	670.5
2029.98	652.5
2028.31	673.5
2026.65	668.5
2024.98	662.5
2023.31	669.5
2021.65	646
2019.98	640.5
2018.31	653.5
2016.64	637
2014.97	644.5
2013.3	636.5
2011.63	635.5
2009.96	648
2008.29	647
2006.62	641.5
2004.95	636.5
2003.28	635.5
2001.6	640
1999.93	658.5
1998.26	643.5
1996.58	607
1994.91	622.5
1993.24	621
1991.56	616
1989.89	610
1988.21	632.5
1986.53	628
1984.86	615.5
1983.18	620.5
1981.5	601
1979.82	601.5
1978.15	601
1976.47	604
1974.79	600.5
1973.11	609
1971.43	596
1969.75	587
1968.07	592
1966.38	597.5
1964.7	573.5
1963.02	592
1961.34	592
1959.66	588.5
1957.97	564
1956.29	592
1954.6	573.5
1952.92	565.5
1951.23	579.5
1949.55	579.5
1947.86	568
1946.18	572
1944.49	557
1942.8	550
1941.11	569.5
1939.43	552.5
1937.74	568
1936.05	533.5
1934.36	545
1932.67	558.5
1930.98	547
1929.29	547.5
1927.6	546
1925.91	543.5
1924.21	534.5
1922.52	527
1920.83	537
1919.14	545
1917.44	534.5
1915.75	542
1914.05	527
1912.36	528
1910.66	525.5
1908.97	520
1907.27	513
1905.58	515.5
1903.88	521
1902.18	512.5
1900.48	511
1898.79	517
1897.09	502
1895.39	500
1893.69	502.5
1891.99	501.5
1890.29	493.5
1888.59	497
1886.89	490.5
1885.18	488.5
1883.48	504.5
1881.78	485.5
1880.08	480
1878.37	483
1876.67	490
1874.96	478.5
1873.26	478
1871.55	470
1869.85	477
1868.14	482
1866.44	465.5
1864.73	471
1863.02	468
1861.32	479
1859.61	461
1857.9	468.5
1856.19	465
1854.48	455
1852.77	467
1851.06	467.5
1849.35	475
1847.64	452.5
1845.93	460
1844.21	454.5
1842.5	465.5
1840.79	456.5
1839.08	454.5
1837.36	444
1835.65	463
1833.93	452.5
1832.22	447
1830.5	452
1828.79	455
1827.07	446
1825.36	430
1823.64	444
1821.92	429.5
1820.2	433.5
1818.48	440
1816.77	451.5
1815.05	439
1813.33	439
1811.61	430.5
1809.89	428
1808.16	427.5
1806.44	423
1804.72	431.5
1803	422.5
1801.28	427
1799.55	430
1797.83	428.5
1796.11	411
1794.38	417
1792.66	432
1790.93	419.5
1789.21	421
1787.48	408.5
1785.75	417
1784.03	414
1782.3	406
1780.57	409
1778.84	407
1777.11	406.5
1775.38	425.5
1773.66	413
1771.93	419
1770.19	418.5
1768.46	431
1766.73	435.5
1765	459.5
1763.27	445
1761.54	454.5
1759.8	477
1758.07	484
1756.34	504
1754.6	512
1752.87	517
1751.13	546
1749.4	551.5
1747.66	550.5
1745.92	551
1744.19	545.5
1742.45	537
1740.71	532.5
1738.97	500
1737.23	494
1735.49	482
1733.75	464
1732.01	451
1730.27	444
1728.53	443.5
1726.79	430
1725.05	426.5
1723.31	411.5
1721.57	406
1719.82	400
1718.08	398.5
1716.34	405
1714.59	416
1712.85	402
1711.1	400.5
1709.36	409
1707.61	399.5
1705.86	403
1704.12	400
1702.37	391.5
1700.62	391
1698.87	390.5
1697.12	388.5
1695.37	386
1693.62	381
1691.87	384
1690.12	387
1688.37	389
1686.62	395
1684.87	387.5
1683.12	377
1681.36	401
1679.61	400
1677.86	423
1676.1	433
1674.35	460
1672.59	467
1670.84	497
1669.08	519.5
1667.33	563
1665.57	635.5
1663.81	704.5
1662.06	754
1660.3	830
1658.54	862
1656.78	892.5
1655.02	860
1653.26	832.5
1651.5	747
1649.74	703
1647.98	627
1646.22	567
1644.46	531
1642.7	509
1640.93	464
1639.17	432
1637.41	436
1635.64	406
1633.88	401
1632.11	390
1630.35	401.5
1628.58	400
1626.81	389
1625.05	384
1623.28	368.5
1621.51	375
1619.75	376
1617.98	379
1616.21	364
1614.44	358.5
1612.67	365
1610.9	361
1609.13	364.5
1607.36	365
1605.58	362.5
1603.81	354.5
1602.04	352
1600.27	358.5
1598.49	356
1596.72	362.5
1594.95	348
1593.17	356
1591.4	356.5
1589.62	361
1587.84	348.5
1586.07	356
1584.29	356.5
1582.51	356
1580.74	353.5
1578.96	362
1577.18	358.5
1575.4	352.5
1573.62	338.5
1571.84	354
1570.06	334
1568.28	342.5
1566.5	363
1564.72	348
1562.93	340.5
1561.15	346.5
1559.37	345.5
1557.58	364.5
1555.8	356
1554.02	362
1552.23	365
1550.45	354
1548.66	356
1546.87	346.5
1545.09	352
1543.3	365.5
1541.51	357
1539.72	348.5
1537.94	334.5
1536.15	343.5
1534.36	355.5
1532.57	346
1530.78	352
1528.99	359.5
1527.2	357
1525.4	361.5
1523.61	361
1521.82	360
1520.03	365.5
1518.23	380
1516.44	368.5
1514.65	374
1512.85	365.5
1511.06	375.5
1509.26	379
1507.46	394.5
1505.67	388.5
1503.87	403.5
1502.07	405
1500.28	405.5
1498.48	426
1496.68	426
1494.88	433
1493.08	433
1491.28	438.5
1489.48	460
1487.68	473.5
1485.88	487.5
1484.08	507.5
1482.27	531
1480.47	560.5
1478.67	591
1476.86	651
1475.06	665
1473.25	758
1471.45	815
1469.64	873.5
1467.84	961.5
1466.03	1038
1464.23	1108.5
1462.42	1165.5
1460.61	1266
1458.8	1316.5
1456.99	1345
1455.18	1411
1453.37	1462.5
1451.56	1519
1449.75	1522
1447.94	1617
1446.13	1662.5
1444.32	1745
1442.51	1803
1440.7	1825.5
1438.88	1755
1437.07	1653.5
1435.26	1510
1433.44	1337.5
1431.63	1165.5
1429.81	1019.5
1427.99	893
1426.18	807
1424.36	745.5
1422.54	699
1420.73	665
1418.91	609
1417.09	593
1415.27	572
1413.45	538
1411.63	520
1409.81	490
1407.99	480.5
1406.17	469.5
1404.35	482
1402.53	456
1400.7	468
1398.88	443
1397.06	430
1395.23	414
1393.41	431
1391.58	402.5
1389.76	421.5
1387.93	420.5
1386.11	428.5
1384.28	422.5
1382.45	420.5
1380.62	432.5
1378.8	431
1376.97	445
1375.14	459
1373.31	472.5
1371.48	481.5
1369.65	486.5
1367.82	495
1365.99	489.5
1364.16	486
1362.32	483.5
1360.49	470
1358.66	459
1356.82	465
1354.99	472.5
1353.16	466
1351.32	482
1349.48	473.5
1347.65	503.5
1345.81	490
1343.98	492
1342.14	501
1340.3	510
1338.46	515
1336.62	529.5
1334.79	540
1332.95	550
1331.11	608
1329.27	630
1327.42	653
1325.58	670.5
1323.74	719.5
1321.9	770.5
1320.06	790
1318.21	849.5
1316.37	909.5
1314.53	987.5
1312.68	1053.5
1310.84	1113
1308.99	1202.5
1307.15	1289
1305.3	1312.5
1303.45	1406.5
1301.61	1406
1299.76	1388
1297.91	1340
1296.06	1254
1294.21	1135
1292.36	1031
1290.51	969
1288.66	913
1286.81	850
1284.96	864
1283.11	863
1281.26	841
1279.4	837.5
1277.55	845.5
1275.7	878
1273.84	874
1271.99	876.5
1270.13	897.5
1268.28	893
1266.42	880
1264.56	895.5
1262.71	873
1260.85	829
1258.99	837
1257.13	794
1255.27	757.5
1253.41	726.5
1251.56	708
1249.7	692
1247.83	665.5
1245.97	616
1244.11	621.5
1242.25	571
1240.39	573.5
1238.52	553.5
1236.66	539
1234.8	538
1232.93	512
1231.07	511
1229.2	504
1227.34	486.5
1225.47	490.5
1223.6	476
1221.74	458
1219.87	472.5
1218	469.5
1216.13	453
1214.26	458
1212.39	448
1210.53	456
1208.65	460
1206.78	463.5
1204.91	447
1203.04	464
1201.17	443
1199.3	436.5
1197.42	445
1195.55	427
1193.68	458
1191.8	467.5
1189.93	456.5
1188.05	445
1186.17	451.5
1184.3	445.5
1182.42	442
1180.54	464.5
1178.67	441
1176.79	464
1174.91	458.5
1173.03	466.5
1171.15	465.5
1169.27	459
1167.39	463
1165.51	460.5
1163.63	460.5
1161.75	470
1159.86	459
1157.98	464.5
1156.1	473
1154.21	475.5
1152.33	478
1150.44	489
1148.56	493
1146.67	493.5
1144.79	501.5
1142.9	506
1141.01	504
1139.12	513.5
1137.24	539
1135.35	558.5
1133.46	630.5
1131.57	671.5
1129.68	697.5
1127.79	692
1125.9	736
1124.01	736.5
1122.12	722.5
1120.22	694
1118.33	718.5
1116.44	673
1114.54	670.5
1112.65	674
1110.75	679.5
1108.86	684
1106.96	699
1105.07	721
1103.17	772
1101.27	803.5
1099.38	812.5
1097.48	866
1095.58	910.5
1093.68	934
1091.78	975
1089.88	1017
1087.98	1058.5
1086.08	1047.5
1084.18	1109
1082.28	1087.5
1080.38	1071
1078.47	1108
1076.57	1059
1074.67	1060
1072.76	1022.5
1070.86	1039.5
1068.95	1033.5
1067.05	1074.5
1065.14	1110.5
1063.24	1075
1061.33	1033
1059.42	944
1057.51	900
1055.6	828.5
1053.7	810
1051.79	792.5
1049.88	752.5
1047.97	753
1046.06	745
1044.14	732
1042.23	727
1040.32	740.5
1038.41	726
1036.5	714.5
1034.58	723.5
1032.67	713.5
1030.75	715
1028.84	718.5
1026.92	713.5
1025.01	734.5
1023.09	705
1021.17	710.5
1019.26	705.5
1017.34	687.5
1015.42	703.5
1013.5	680.5
1011.58	656.5
1009.66	673
1007.74	658
1005.82	641
1003.9	630.5
1001.98	636.5
1000.06	630.5
998.134	627.5
996.212	629
994.288	616.5
992.364	629
990.44	637.5
988.515	657.5
986.589	651
984.663	667
982.737	684.5
980.81	705
978.883	742.5
976.955	738.5
975.027	790.5
973.098	804
971.169	792
969.239	786
967.308	768
965.378	790
963.447	767
961.516	780.5
959.583	755
957.65	763.5
955.718	768.5
953.784	755
951.85	763
949.916	764.5
947.981	782
946.045	788
944.109	784.5
942.173	791
940.236	817.5
938.298	808
936.36	803.5
934.422	803
932.484	788.5
930.544	786
928.604	794
926.664	779
924.724	810.5
922.782	804.5
920.84	793.5
918.898	792.5
916.955	812
915.012	817.5
913.068	813.5
911.124	808
909.18	815.5
907.235	825
905.289	837.5
903.343	861.5
901.397	853.5
899.45	879.5
897.502	895
895.554	929.5
893.605	966.5
891.657	977
889.707	982
887.758	995.5
885.807	969
883.856	955.5
881.905	968.5
879.953	996
878.001	1001
876.048	1031
874.094	1050
872.14	1024.5
870.186	1043
868.232	1031
866.276	1011
864.321	987.5
862.365	1004.5
860.408	973.5
858.451	965.5
856.493	983
854.535	958.5
852.576	975
850.617	964
848.658	973
846.698	965
844.737	954
842.776	959
840.814	937
838.852	927
836.89	887.5
834.927	898.5
832.963	859.5
830.999	809
829.035	793.5
827.07	766.5
825.105	767
823.139	731
821.172	727
819.206	739
817.238	710.5
815.27	707.5
813.301	683.5
811.333	666.5
809.363	668
807.394	634
805.424	615.5
803.453	608
801.482	601.5
799.509	580.5
797.538	581
795.565	570.5
793.592	561
791.618	545
789.643	540.5
787.669	556
785.693	510
783.718	534
781.742	549
779.765	529.5
777.788	546
775.811	543
773.832	548.5
771.853	549
769.875	534
767.895	537.5
765.915	535
763.934	550
761.953	550
759.972	546.5
757.99	551
756.007	542.5
754.024	527.5
752.041	528.5
750.056	524.5
748.072	550
746.087	553.5
744.102	555.5
742.116	536.5
740.13	570.5
738.143	544
736.155	540
734.167	558
732.179	564.5
730.19	551.5
728.2	563.5
726.21	560
724.22	568.5
722.229	563
720.237	536.5
718.246	559
716.253	539.5
714.26	531.5
712.267	532
710.273	542.5
708.279	506.5
706.284	497.5
704.289	494
702.293	493.5
700.296	515.5
698.3	492
696.303	507
694.305	482
692.307	499.5
690.307	486
688.308	489.5
686.309	494
684.308	491.5
682.308	484.5
680.306	480
678.304	491.5
676.302	485.5
674.3	491.5
672.296	495.5
670.293	490.5
668.289	500.5
666.284	494
664.278	508.5
662.273	510.5
660.266	515
658.26	489.5
656.252	494.5
654.244	507.5
652.237	502.5
650.227	514.5
648.218	512.5
646.209	522.5
644.198	508.5
642.188	516
640.177	524
638.165	528.5
636.153	547
634.14	543.5
632.128	535
630.113	548.5
628.099	532.5
626.085	554
624.07	542
622.054	544.5
620.038	559.5
618.021	567
616.004	570.5
613.986	585.5
611.968	610.5
609.949	616
607.93	627
605.911	612.5
603.891	626
601.87	611.5
599.848	601
597.827	599
595.805	597
593.782	604
591.759	612.5
589.735	594.5
587.711	590
585.687	588
583.661	585.5
581.636	580.5
579.609	567.5
577.583	575.5
575.555	562.5
573.527	572
571.5	578.5
569.471	559
567.441	564.5
565.412	561
563.382	584.5
561.351	584.5
559.32	569.5
557.289	595
555.257	590.5
553.223	599
551.19	606.5
549.157	619
547.122	625.5
545.088	625
543.053	641
541.017	661.5
538.981	712
536.943	742.5
534.907	784.5
532.869	899.5
530.831	1065
528.792	1349
526.752	1843
524.713	2578.5
522.673	3272
520.632	3427.5
518.591	2991.5
516.549	2310
514.507	1681.5
512.464	1286
510.42	1026.5
508.377	888
506.332	799.5
504.288	787.5
502.242	760.5
500.196	740.5
498.15	721.5
496.104	725
494.056	721
492.008	728
489.96	725.5
487.911	714.5
485.862	713.5
483.812	694.5
481.761	719.5
479.71	715
477.659	709.5
475.607	705
473.555	705.5
471.502	706
469.448	706
467.395	707.5
465.34	701
463.285	713.5
461.23	712
459.174	701.5
457.118	725
455.061	722.5
453.003	730
450.945	725
448.887	741.5
446.828	732
444.768	737
442.708	746.5
440.647	739.5
438.587	737
436.525	741.5
434.463	770
432.4	752
430.337	769.5
428.274	754.5
426.21	773.5
424.145	766.5
422.079	778.5
420.014	790.5
417.948	772
415.882	792.5
413.814	803
411.746	794.5
409.679	795.5
407.609	796.5
405.54	813
403.47	822.5
401.401	831.5
399.329	813
397.258	804.5
395.187	813
393.114	804.5
391.041	814.5
388.968	826
386.895	817.5
384.82	824
382.745	841
380.67	832
378.594	820
376.517	828
374.44	842.5
372.363	857
370.286	860.5
368.207	844.5
366.128	832.5
364.049	857
361.969	856
359.888	860
357.807	890.5
355.725	859
353.643	856.5
351.561	881
349.477	889
347.394	878.5
345.31	895
343.226	869
341.141	905
339.055	893
336.968	885.5
334.882	918.5
332.795	893
330.707	936.5
328.618	922.5
326.53	919
324.44	933
322.351	937.5
320.26	967.5
318.17	976.5
316.078	1000.5
313.987	1024
311.895	1010.5
309.802	1040.5
307.708	1051.5
305.614	1062.5
303.52	1073
301.425	1080
299.329	1101.5
297.233	1062.5
295.137	1106
293.039	1101
290.942	1102
288.844	1102
286.745	1116
284.647	1143.5
282.546	1124
280.446	1151
278.346	1156
276.245	1159.5
274.143	1174
272.041	1194.5
269.939	1201
267.835	1185.5
265.731	1210.5
263.627	1219
261.522	1233
259.417	1257.5
257.311	1261.5
255.204	1257
253.098	1292.5
250.99	1305
248.882	1301.5
246.774	1337
244.664	1329.5
242.555	1360
240.445	1363
238.334	1364.5
236.223	1423.5
234.112	1421
232	1412.5
229.888	1427
227.775	1463
225.661	1490
223.546	1517
221.431	1512.5
219.316	1522
217.201	1523
215.084	1547
212.967	1554.5
210.85	1542
208.732	1518.5
206.614	1548
204.495	1558.5
202.375	1547.5
200.256	1571.5
198.135	1547.5
196.014	1548
193.893	1546.5
191.771	1552
189.648	1524
187.525	1534
185.401	1550
183.277	1508.5
181.152	1531
179.027	1531.5
176.901	1527
174.775	1538
172.648	1553
170.521	1538
168.393	1566
166.265	1556
164.136	1596
162.007	1648.5
159.876	1644
157.746	1667
155.615	1698
153.483	1727.5
151.351	1762
149.219	1809
147.086	1813.5
144.952	1872
142.818	1929
140.684	1979.5
138.548	2017
136.413	2064
134.276	2143.5
132.139	2158
130.002	2226.5
127.864	2297
125.725	2384.5
123.587	2455.5
121.447	2530.5
119.307	2614.5
117.166	2735
115.026	2776
112.885	2881.5
110.743	3006.5
108.6	3051.5
106.456	3158.5
104.313	3214.5
102.169	3213
100.023	3141.5
97.8789	2971
95.7328	2736
93.5869	2408
91.4392	2067.5
89.2919	1691
87.1447	1354
84.9959	1032
