3528.51	115
3527.23	120
3525.95	110.5
3524.67	125.5
3523.39	133
3522.1	132
3520.82	137
3519.54	131
3518.26	129.5
3516.97	128.5
3515.69	127
3514.4	139
3513.12	135
3511.84	134.5
3510.55	128
3509.26	136
3507.98	132
3506.69	135
3505.41	134
3504.12	143.5
3502.83	129.5
3501.54	148
3500.26	151
3498.97	155
3497.68	153.5
3496.39	151.5
3495.1	146
3493.81	157
3492.52	166
3491.23	160
3489.94	167.5
3488.65	167
3487.36	158.5
3486.07	174.5
3484.78	168
3483.49	168.5
3482.19	171
3480.9	171.5
3479.61	180
3478.31	193.5
3477.02	186
3475.73	193.5
3474.43	189.5
3473.14	195.5
3471.84	191
3470.54	198.5
3469.25	207.5
3467.95	206.5
3466.66	197
3465.36	207
3464.06	207.5
3462.76	206
3461.46	212.5
3460.17	204
3458.87	211.5
3457.57	211.5
3456.27	208
3454.97	218.5
3453.67	226
3452.37	224.5
3451.07	212
3449.77	223.5
3448.47	208
3447.16	234.5
3445.86	231
3444.56	238
3443.26	244.5
3441.95	230
3440.65	243
3439.35	255
3438.04	265
3436.74	256
3435.43	269.5
3434.13	273
3432.82	278
3431.52	275.5
3430.21	285.5
3428.9	291.5
3427.6	294
3426.29	306.5
3424.98	299
3423.67	309
3422.36	312
3421.06	323.5
3419.75	311.5
3418.44	317.5
3417.13	332.5
3415.82	327
3414.51	345
3413.2	342.5
3411.88	352.5
3410.57	349.5
3409.26	338.5
3407.95	347
3406.64	360
3405.32	361
3404.01	357.5
3402.7	375.5
3401.38	369
3400.07	383.5
3398.75	362
3397.44	376
3396.12	372
3394.81	383.5
3393.49	392
3392.18	393.5
3390.86	379
3389.54	385.5
3388.23	410
3386.91	407
3385.59	415
3384.27	407
3382.95	415.5
3381.63	416.5
3380.31	430
3378.99	433
3377.67	432.5
3376.35	433
3375.03	458.5
3373.71	451.5
3372.39	438.5
3371.07	455
3369.75	438.5
3368.42	458
3367.1	459
3365.78	466.5
3364.45	465.5
3363.13	474.5
3361.81	494.5
3360.48	486.5
3359.16	477
3357.83	480
3356.51	489
3355.18	468.5
3353.85	474
3352.53	501
3351.2	493
3349.87	479.5
3348.54	503
3347.22	512
3345.89	492
3344.56	511
3343.23	493.5
3341.9	517.5
3340.57	502.5
3339.24	504
3337.91	521
3336.58	514
3335.25	507
3333.92	520.5
3332.58	517
3331.25	497
3329.92	528.5
3328.59	531
3327.25	521.5
3325.92	516
3324.58	524
3323.25	536
3321.92	529
3320.58	551.5
3319.25	538.5
3317.91	538
3316.57	555.5
3315.24	551
3313.9	560
3312.56	566
3311.23	563.5
3309.89	555.5
3308.55	566.5
3307.21	558.5
3305.87	567
3304.53	568
3303.19	573.5
3301.85	580.5
3300.51	577.5
3299.17	577.5
3297.83	590
3296.49	580.5
3295.15	606
3293.81	590.5
3292.46	602
3291.12	601.5
3289.78	599
3288.43	612.5
3287.09	627
3285.75	608
3284.4	604
3283.06	603
3281.71	604.5
3280.37	612.5
3279.02	628
3277.67	632.5
3276.33	619
3274.98	631
3273.63	642.5
3272.28	641
3270.94	638.5
3269.59	626.5
3268.24	644
3266.89	662
3265.54	644.5
3264.19	658
3262.84	684.5
3261.49	685.5
3260.14	699.5
3258.79	714.5
3257.44	700
3256.08	734.5
3254.73	748
3253.38	748
3252.03	762.5
3250.67	784.5
3249.32	813
3247.96	828
3246.61	855
3245.26	863
3243.9	910
3242.54	913.5
3241.19	931
3239.83	953
3238.48	997
3237.12	1000.5
3235.76	1037.5
3234.41	1077.5
3233.05	1090.5
3231.69	1112
3230.33	1145.5
3228.97	1165.5
3227.61	1198
3226.25	1210
3224.89	1248
3223.53	1272
3222.17	1287
3220.81	1303.5
3219.45	1322
3218.09	1333.5
3216.72	1338
3215.36	1343.5
3214	1386.5
3212.63	1374
3211.27	1415.5
3209.91	1411.5
3208.54	1416.5
3207.18	1439
3205.81	1466
3204.45	1432.5
3203.08	1463
3201.71	1467.5
3200.35	1476
3198.98	1458
3197.61	1485
3196.25	1510
3194.88	1507.5
3193.51	1502
3192.14	1533.5
3190.77	1526
3189.4	1533
3188.03	1549.5
3186.66	1550
3185.29	1553
3183.92	1561.5
3182.55	1559
3181.18	1585.5
3179.81	1600.5
3178.44	1603.5
3177.06	1591.5
3175.69	1612.5
3174.32	1599.5
3172.94	1637.5
3171.57	1657.5
3170.2	1664
3168.82	1662
3167.45	1692.5
3166.07	1675
3164.69	1719
3163.32	1725.5
3161.94	1769
3160.56	1770.5
3159.19	1775
3157.81	1771
3156.43	1799.5
3155.05	1784.5
3153.67	1788.5
3152.3	1811
3150.92	1826
3149.54	1853.5
3148.16	1874
3146.78	1868
3145.4	1888
3144.01	1902
3142.63	1931
3141.25	1932
3139.87	1954.5
3138.49	1951.5
3137.1	1964
3135.72	1943
3134.34	1990
3132.95	2006
3131.57	2014.5
3130.18	2030.5
3128.8	2032.5
3127.41	2041.5
3126.03	2045.5
3124.64	2077
3123.25	2105
3121.87	2101.5
3120.48	2122
3119.09	2127
3117.7	2163
3116.32	2153
3114.93	2175.5
3113.54	2156.5
3112.15	2148
3110.76	2185
3109.37	2209
3107.98	2236.5
3106.59	2192
3105.2	2220
3103.8	2224
3102.41	2264
3101.02	2257
3099.63	2242
3098.23	2273
3096.84	2273
3095.45	2272
3094.05	2339.5
3092.66	2321.5
3091.26	2304
3089.87	2348.5
3088.47	2369
3087.08	2324
3085.68	2367
3084.28	2376.5
3082.89	2368
3081.49	2376.5
3080.09	2401.5
3078.69	2389.5
3077.3	2379.5
3075.9	2415.5
3074.5	2405.5
3073.1	2406
3071.7	2454.5
3070.3	2448.5
3068.9	2454
3067.5	2438
3066.09	2434.5
3064.69	2448.5
3063.29	2477.5
3061.89	2490.5
3060.48	2469.5
3059.08	2512
3057.68	2497
3056.27	2504
3054.87	2496
3053.46	2500
3052.06	2480.5
3050.65	2565.5
3049.25	2532
3047.84	2573
3046.44	2569.5
3045.03	2567
3043.62	2576.5
3042.21	2591.5
3040.81	2575
3039.4	2595.5
3037.99	2606
3036.58	2624.5
3035.17	2633.5
3033.76	2675
3032.35	2626.5
3030.94	2606.5
3029.53	2651
3028.12	2660
3026.71	2691.5
3025.29	2687.5
3023.88	2682.5
3022.47	2649
3021.06	2694
3019.64	2693
3018.23	2663
3016.82	2699.5
3015.4	2712
3013.99	2669
3012.57	2682.5
3011.15	2718
3009.74	2725
3008.32	2732
3006.91	2741
3005.49	2726.5
3004.07	2713.5
3002.65	2771
3001.24	2779
2999.82	2812.5
2998.4	2792
2996.98	2805
2995.56	2848
2994.14	2813
2992.72	2830.5
2991.3	2867
2989.88	2851.5
2988.46	2869
2987.03	2920
2985.61	2905.5
2984.19	2896.5
2982.77	2945.5
2981.34	2939.5
2979.92	2949.5
2978.49	3003.5
2977.07	3009.5
2975.65	3019.5
2974.22	3047.5
2972.79	3055
2971.37	3094
2969.94	3092.5
2968.52	3101
2967.09	3099
2965.66	3127.5
2964.23	3122.5
2962.81	3171
2961.38	3161.5
2959.95	3172.5
2958.52	3210
2957.09	3215.5
2955.66	3211
2954.23	3223
2952.8	3279
2951.37	3222
2949.94	3247.5
2948.5	3281
2947.07	3300.5
2945.64	3294
2944.21	3284
2942.77	3337
2941.34	3319.5
2939.91	3347
2938.47	3349
2937.04	3386.5
2935.6	3383
2934.17	3348
2932.73	3420.5
2931.29	3400
2929.86	3444
2928.42	3485.5
2926.98	3500
2925.55	3500.5
2924.11	3514.5
2922.67	3483
2921.23	3527.5
2919.79	3535.5
2918.35	3522.5
2916.91	3562.5
2915.47	3543.5
2914.03	3582.5
2912.59	3550.5
2911.15	3584.5
2909.71	3587
2908.26	3560
2906.82	3614
2905.38	3628
2903.94	3614.5
2902.49	3659.5
2901.05	3619
2899.6	3618.5
2898.16	3657.5
2896.71	3674
2895.27	3691
2893.82	3691.5
2892.38	3644.5
2890.93	3672.5
2889.48	3688
2888.03	3678.5
2886.59	3672.5
2885.14	3709
2883.69	3722.5
2882.24	3727
2880.79	3730.5
2879.34	3741
2877.89	3731.5
2876.44	3688
2874.99	3733.5
2873.54	3707.5
2872.09	3707.5
2870.64	3727
2869.18	3701.5
2867.73	3740
2866.28	3756
2864.83	3747
2863.37	3736.5
2861.92	3788
2860.46	3791
2859.01	3751
2857.55	3743
2856.1	3787
2854.64	3772
2853.19	3780
2851.73	3770.5
2850.27	3780
2848.81	3729
2847.36	3726.5
2845.9	3729.5
2844.44	3706
2842.98	3687.5
2841.52	3643
2840.06	3644.5
2838.6	3581.5
2837.14	3600
2835.68	3590.5
2834.22	3549.5
2832.76	3545
2831.3	3515.5
2829.83	3520
2828.37	3522.5
2826.91	3505
2825.44	3482.5
2823.98	3474
2822.52	3465.5
2821.05	3441.5
2819.59	3464.5
2818.12	3421
2816.66	3456
2815.19	3414
2813.72	3374.5
2812.26	3387
2810.79	3395
2809.32	3381.5
2807.85	3379
2806.38	3363.5
2804.92	3340.5
2803.45	3363.5
2801.98	3357.5
2800.51	3317.5
2799.04	3320
2797.57	3308.5
2796.1	3305
2794.62	3379
2793.15	3332
2791.68	3302
2790.21	3298.5
2788.73	3290
2787.26	3271
2785.79	3334.5
2784.31	3306.5
2782.84	3315
2781.36	3315.5
2779.89	3314
2778.41	3316
2776.94	3304.5
2775.46	3329
2773.99	3345.5
2772.51	3320.5
2771.03	3327.5
2769.55	3331
2768.07	3341
2766.6	3338
2765.12	3378.5
2763.64	3353
2762.16	3359
2760.68	3319
2759.2	3361
2757.72	3340
2756.24	3325
2754.75	3325.5
2753.27	3340
2751.79	3315
2750.31	3382
2748.82	3306
2747.34	3331.5
2745.86	3338
2744.37	3322
2742.89	3319.5
2741.4	3338
2739.92	3330.5
2738.43	3326
2736.94	3339.5
2735.46	3341.5
2733.97	3317.5
2732.48	3274
2731	3321
2729.51	3332
2728.02	3302
2726.53	3346.5
2725.04	3327
2723.55	3327.5
2722.06	3283
2720.57	3299
2719.08	3338
2717.59	3286.5
2716.1	3316.5
2714.61	3321
2713.11	3299
2711.62	3283
2710.13	3312.5
2708.64	3316.5
2707.14	3313
2705.65	3259.5
2704.15	3286.5
2702.66	3281.5
2701.16	3239
2699.67	3304.5
2698.17	3235.5
2696.67	3270
2695.18	3253.5
2693.68	3264
2692.18	3285.5
2690.69	3236.5
2689.19	3222.5
2687.69	3216
2686.19	3253.5
2684.69	3207.5
2683.19	3214
2681.69	3197.5
2680.19	3229.5
2678.69	3218.5
2677.19	3216.5
2675.68	3196.5
2674.18	3176
2672.68	3220.5
2671.18	3195
2669.67	3212.5
2668.17	3194.5
2666.66	3179
2665.16	3158.5
2663.66	3163
2662.15	3146
2660.64	3160
2659.14	3177.5
2657.63	3129
2656.13	3151
2654.62	3162.5
2653.11	3154
2651.6	3108
2650.09	3096.5
2648.58	3129
2647.08	3113
2645.57	3126.5
2644.06	3114
2642.55	3104.5
2641.04	3126
2639.52	3123.5
2638.01	3077.5
2636.5	3101.5
2634.99	3070.5
2633.48	3063
2631.96	3043
2630.45	3071.5
2628.94	3080
2627.42	3040
2625.91	3014
2624.39	3027.5
2622.88	3031.5
2621.36	3024.5
2619.85	3029
2618.33	3019.5
2616.81	3024.5
2615.3	2996.5
2613.78	3017
2612.26	3040.5
2610.74	3046.5
2609.22	3005.5
2607.7	3023.5
2606.18	2962
2604.66	2976
2603.14	2930
2601.62	2956.5
2600.1	2956
2598.58	2926
2597.06	2946.5
2595.54	2920
2594.01	2924
2592.49	2879.5
2590.97	2927
2589.44	2882.5
2587.92	2894
2586.39	2898.5
2584.87	2866.5
2583.34	2894.5
2581.82	2834
2580.29	2854
2578.76	2865.5
2577.24	2844.5
2575.71	2901
2574.18	2832.5
2572.65	2851
2571.13	2859
2569.6	2858.5
2568.07	2833
2566.54	2830.5
2565.01	2800
2563.48	2785.5
2561.95	2823
2560.42	2805.5
2558.88	2755
2557.35	2826
2555.82	2775
2554.29	2818
2552.75	2793.5
2551.22	2780.5
2549.69	2790.5
2548.15	2740
2546.62	2786
2545.08	2760.5
2543.55	2752
2542.01	2778.5
2540.47	2710
2538.94	2767.5
2537.4	2735.5
2535.86	2703
2534.33	2709
2532.79	2662.5
2531.25	2677
2529.71	2664.5
2528.17	2671.5
2526.63	2707.5
2525.09	2682.5
2523.55	2678
2522.01	2626
2520.47	2618.5
2518.92	2648
2517.38	2650.5
2515.84	2636
2514.3	2598
2512.75	2612
2511.21	2622.5
2509.67	2613.5
2508.12	2608
2506.58	2583.5
2505.03	2593.5
2503.49	2547
2501.94	2585
2500.39	2536.5
2498.85	2571
2497.3	2550
2495.75	2551
2494.2	2524.5
2492.65	2501
2491.11	2540
2489.56	2509
2488.01	2503.5
2486.46	2522
2484.91	2500
2483.36	2468.5
2481.8	2435
2480.25	2450
2478.7	2425.5
2477.15	2444.5
2475.6	2455
2474.04	2418.5
2472.49	2430.5
2470.93	2427.5
2469.38	2409.5
2467.83	2396
2466.27	2377
2464.71	2409.5
2463.16	2413.5
2461.6	2350.5
2460.05	2375
2458.49	2339.5
2456.93	2350.5
2455.37	2325.5
2453.81	2323
2452.26	2316
2450.7	2296
2449.14	2318
2447.58	2284
2446.02	2272
2444.46	2273
2442.9	2225
2441.33	2252
2439.77	2261.5
2438.21	2246.5
2436.65	2235.5
2435.08	2222.5
2433.52	2261
2431.96	2218
2430.39	2207.5
2428.83	2237
2427.26	2225.5
2425.7	2192.5
2424.13	2191.5
2422.56	2178.5
2421	2187
2419.43	2182.5
2417.86	2153.5
2416.3	2156.5
2414.73	2140.5
2413.16	2165.5
2411.59	2157.5
2410.02	2118.5
2408.45	2162.5
2406.88	2150
2405.31	2150.5
2403.74	2123
2402.17	2148
2400.6	2133
2399.02	2140.5
2397.45	2137
2395.88	2130
2394.3	2113
2392.73	2117
2391.16	2111
2389.58	2100
2388.01	2111.5
2386.43	2094
2384.86	2075.5
2383.28	2078.5
2381.7	2102.5
2380.13	2060.5
2378.55	2095
2376.97	2082
2375.39	2061
2373.81	2078.5
2372.23	2049
2370.65	2087
2369.07	2058.5
2367.49	2055.5
2365.91	2050
2364.33	2028.5
2362.75	2042.5
2361.17	2029.5
2359.59	2024
2358.01	2023.5
2356.42	2022.5
2354.84	2025
2353.25	2016.5
2351.67	2022
2350.09	1972.5
2348.5	2001
2346.92	2023
2345.33	1996.5
2343.74	1979.5
2342.16	1993.5
2340.57	2018.5
2338.98	1989.5
2337.39	1950.5
2335.81	1977.5
2334.22	1984.5
2332.63	1954.5
2331.04	1992.5
2329.45	1948.5
2327.86	1944
2326.27	1939.5
2324.68	1943.5
2323.09	1929
2321.49	1951
2319.9	1930
2318.31	1906
2316.72	1939
2315.12	1923
2313.53	1939.5
2311.93	1924.5
2310.34	1888
2308.74	1892.5
2307.15	1891.5
2305.55	1856.5
2303.96	1853
2302.36	1883.5
2300.76	1862
2299.17	1882.5
2297.57	1835
2295.97	1859
2294.37	1816
2292.77	1823.5
2291.17	1819
2289.57	1821
2287.97	1815.5
2286.37	1797
2284.77	1787.5
2283.17	1824
2281.57	1776.5
2279.96	1783
2278.36	1775
2276.76	1794
2275.15	1761
2273.55	1763
2271.95	1753
2270.34	1748.5
2268.74	1774
2267.13	1770
2265.52	1769
2263.92	1760.5
2262.31	1738.5
2260.7	1724
2259.1	1761.5
2257.49	1758.5
2255.88	1721
2254.27	1717
2252.66	1711
2251.05	1699
2249.44	1718
2247.83	1702
2246.22	1714
2244.61	1706.5
2243	1741.5
2241.39	1697.5
2239.77	1681.5
2238.16	1709
2236.55	1691
2234.93	1686.5
2233.32	1710
2231.7	1627.5
2230.09	1669
2228.47	1662.5
2226.86	1653.5
2225.24	1625
2223.63	1629
2222.01	1649.5
2220.39	1621
2218.77	1578.5
2217.16	1624
2215.54	1614
2213.92	1626.5
2212.3	1612.5
2210.68	1611.5
2209.06	1581
2207.44	1589.5
2205.82	1623
2204.19	1593
2202.57	1578
2200.95	1566.5
2199.33	1567
2197.7	1563
2196.08	1576
2194.46	1538.5
2192.83	1572.5
2191.21	1553.5
2189.58	1544
2187.96	1567.5
2186.33	1559
2184.7	1537
2183.08	1546
2181.45	1532
2179.82	1551
2178.19	1552.5
2176.57	1538
2174.94	1525
2173.31	1492.5
2171.68	1505
2170.05	1518.5
2168.42	1526
2166.79	1484
2165.16	1528.5
2163.52	1499.5
2161.89	1492
2160.26	1485.5
2158.63	1489.5
2156.99	1471
2155.36	1482.5
2153.73	1481.5
2152.09	1478
2150.46	1458.5
2148.82	1431.5
2147.18	1457
2145.55	1447.5
2143.91	1419.5
2142.27	1472.5
2140.64	1437
2139	1425
2137.36	1420.5
2135.72	1424
2134.08	1420.5
2132.44	1408.5
2130.8	1394.5
2129.16	1406
2127.52	1413
2125.88	1396
2124.24	1368.5
2122.6	1372.5
2120.95	1349
2119.31	1367.5
2117.67	1352.5
2116.02	1350.5
2114.38	1337
2112.74	1352
2111.09	1335.5
2109.45	1334
2107.8	1328.5
2106.15	1317.5
2104.51	1345
2102.86	1321
2101.21	1320
2099.56	1310
2097.92	1318
2096.27	1334.5
2094.62	1318.5
2092.97	1295
2091.32	1296
2089.67	1296.5
2088.02	1299.5
2086.37	1306.5
2084.72	1295
2083.06	1285
2081.41	1277
2079.76	1285
2078.1	1281.5
2076.45	1309.5
2074.8	1263.5
2073.14	1276.5
2071.49	1294
2069.83	1325
2068.18	1296.5
2066.52	1264.5
2064.86	1300
2063.21	1264.5
2061.55	1256.5
2059.89	1277.5
2058.23	1275.5
2056.57	1276
2054.92	1245.5
2053.26	1248.5
2051.6	1258
2049.94	1260.5
2048.27	1248.5
2046.61	1275
2044.95	1264.5
2043.29	1242
2041.63	1234
2039.97	1231
2038.3	1231
2036.64	1215
2034.97	1198
2033.31	1227
2031.64	1207
2029.98	1211
2028.31	1232.5
2026.65	1183.5
2024.98	1204
2023.31	1199
2021.65	1192
2019.98	1180
2018.31	1169.5
2016.64	1180.5
2014.97	1161.5
2013.3	1164
2011.63	1177
2009.96	1169
2008.29	1168
2006.62	1167.5
2004.95	1160
2003.28	1177
2001.6	1165.5
1999.93	1140.5
1998.26	1132.5
1996.58	1143.5
1994.91	1142
1993.24	1166.5
1991.56	1171
1989.89	1148
1988.21	1134.5
1986.53	1162
1984.86	1143.5
1983.18	1157
1981.5	1131
1979.82	1120
1978.15	1133
1976.47	1112.5
1974.79	1097.5
1973.11	1113
1971.43	1101
1969.75	1100
1968.07	1109.5
1966.38	1091.5
1964.7	1075
1963.02	1094.5
1961.34	1089.5
1959.66	1090.5
1957.97	1069
1956.29	1100
1954.6	1073
1952.92	1079.5
1951.23	1062
1949.55	1083.5
1947.86	1061.5
1946.18	1075
1944.49	1048
1942.8	1073
1941.11	1054
1939.43	1043.5
1937.74	1043.5
1936.05	1043.5
1934.36	1030
1932.67	1037.5
1930.98	1032
1929.29	1026
1927.6	1025
1925.91	1021
1924.21	1034.5
1922.52	1026
1920.83	1007
1919.14	1034.5
1917.44	999
1915.75	1012
1914.05	1022.5
1912.36	1016
1910.66	1027
1908.97	1017
1907.27	1002
1905.58	1020.5
1903.88	1000
1902.18	1001.5
1900.48	970
1898.79	975
1897.09	1005
1895.39	993
1893.69	960
1891.99	988.5
1890.29	966
1888.59	975
1886.89	953
1885.18	965.5
1883.48	917
1881.78	959
1880.08	951.5
1878.37	959.5
1876.67	944
1874.96	939.5
1873.26	932.5
1871.55	927
1869.85	927
1868.14	937.5
1866.44	930
1864.73	923.5
1863.02	936.5
1861.32	935.5
1859.61	928.5
1857.9	937
1856.19	910.5
1854.48	923.5
1852.77	912.5
1851.06	908.5
1849.35	911.5
1847.64	910
1845.93	904
1844.21	902.5
1842.5	894.5
1840.79	906
1839.08	908
1837.36	907.5
1835.65	903
1833.93	902
1832.22	906
1830.5	887.5
1828.79	891
1827.07	898
1825.36	892
1823.64	923.5
1821.92	876
1820.2	877.5
1818.48	870
1816.77	887.5
1815.05	886.5
1813.33	895
1811.61	884
1809.89	893
1808.16	895
1806.44	875
1804.72	875
1803	887
1801.28	852.5
1799.55	859
1797.83	860
1796.11	864
1794.38	887
1792.66	864
1790.93	882.5
1789.21	859.5
1787.48	878.5
1785.75	867.5
1784.03	864.5
1782.3	863.5
1780.57	850
1778.84	861
1777.11	842.5
1775.38	835.5
1773.66	865.5
1771.93	859
1770.19	847.5
1768.46	860
1766.73	851
1765	874.5
1763.27	874
1761.54	888
1759.8	898
1758.07	909
1756.34	916.5
1754.6	963.5
1752.87	932
1751.13	919
1749.4	944
1747.66	955.5
1745.92	941.5
1744.19	972.5
1742.45	954.5
1740.71	926
1738.97	938.5
1737.23	916
1735.49	913
1733.75	928
1732.01	889.5
1730.27	886.5
1728.53	892.5
1726.79	899
1725.05	873
1723.31	887
1721.57	863.5
1719.82	880.5
1718.08	855
1716.34	860.5
1714.59	868
1712.85	863.5
1711.1	849.5
1709.36	846.5
1707.61	866
1705.86	857
1704.12	866
1702.37	855.5
1700.62	855.5
1698.87	864
1697.12	881
1695.37	852.5
1693.62	856
1691.87	839
1690.12	856
1688.37	856.5
1686.62	859.5
1684.87	862
1683.12	854
1681.36	884
1679.61	884.5
1677.86	889.5
1676.1	886
1674.35	876
1672.59	920.5
1670.84	925
1669.08	960
1667.33	991.5
1665.57	1030
1663.81	1077.5
1662.06	1108
1660.3	1175.5
1658.54	1191
1656.78	1186.5
1655.02	1192
1653.26	1131.5
1651.5	1102.5
1649.74	1069
1647.98	1011
1646.22	970.5
1644.46	964.5
1642.7	932
1640.93	926.5
1639.17	905.5
1637.41	903.5
1635.64	895
1633.88	876.5
1632.11	884
1630.35	864.5
1628.58	844
1626.81	856.5
1625.05	846.5
1623.28	868
1621.51	857
1619.75	870.5
1617.98	849
1616.21	842.5
1614.44	828.5
1612.67	856
1610.9	864.5
1609.13	850
1607.36	839.5
1605.58	842.5
1603.81	863.5
1602.04	858.5
1600.27	841.5
1598.49	854
1596.72	861
1594.95	857
1593.17	849.5
1591.4	845.5
1589.62	852.5
1587.84	852
1586.07	866
1584.29	849
1582.51	879
1580.74	852
1578.96	844.5
1577.18	866.5
1575.4	873
1573.62	866.5
1571.84	864.5
1570.06	858
1568.28	851
1566.5	853
1564.72	843
1562.93	865.5
1561.15	877.5
1559.37	859
1557.58	852.5
1555.8	852
1554.02	864
1552.23	853.5
1550.45	862.5
1548.66	860
1546.87	842.5
1545.09	860
1543.3	859
1541.51	860.5
1539.72	862.5
1537.94	858
1536.15	859
1534.36	868
1532.57	853
1530.78	848
1528.99	851
1527.2	858.5
1525.4	861
1523.61	848.5
1521.82	861
1520.03	852
1518.23	847.5
1516.44	857
1514.65	866
1512.85	874
1511.06	861
1509.26	890.5
1507.46	869.5
1505.67	898.5
1503.87	888.5
1502.07	894
1500.28	908.5
1498.48	929
1496.68	899
1494.88	908
1493.08	933.5
1491.28	949.5
1489.48	982
1487.68	955
1485.88	993.5
1484.08	999.5
1482.27	1020
1480.47	1054.5
1478.67	1088
1476.86	1133.5
1475.06	1185
1473.25	1186
1471.45	1250.5
1469.64	1314.5
1467.84	1374
1466.03	1424.5
1464.23	1476
1462.42	1529.5
1460.61	1575
1458.8	1622
1456.99	1666
1455.18	1691
1453.37	1716.5
1451.56	1748.5
1449.75	1769
1447.94	1808.5
1446.13	1854.5
1444.32	1903
1442.51	1895.5
1440.7	1922.5
1438.88	1895
1437.07	1839
1435.26	1710.5
1433.44	1590.5
1431.63	1481.5
1429.81	1387.5
1427.99	1321
1426.18	1307.5
1424.36	1233.5
1422.54	1204
1420.73	1182.5
1418.91	1143
1417.09	1102
1415.27	1113
1413.45	1063.5
1411.63	1061.5
1409.81	1042.5
1407.99	1031
1406.17	1044.5
1404.35	1060.5
1402.53	1050
1400.7	1070
1398.88	1071.5
1397.06	1068.5
1395.23	1021.5
1393.41	1038.5
1391.58	1013
1389.76	1010
1387.93	1015
1386.11	992
1384.28	994.5
1382.45	1011.5
1380.62	1020
1378.8	1016.5
1376.97	1038.5
1375.14	1037
1373.31	1025
1371.48	1039
1369.65	1054
1367.82	1066
1365.99	1045
1364.16	1066
1362.32	1033
1360.49	1047.5
1358.66	1030.5
1356.82	1037.5
1354.99	1046.5
1353.16	1036
1351.32	1042.5
1349.48	1052
1347.65	1050.5
1345.81	1051.5
1343.98	1048.5
1342.14	1064.5
1340.3	1067.5
1338.46	1088.5
1336.62	1069.5
1334.79	1086.5
1332.95	1123.5
1331.11	1128.5
1329.27	1140
1327.42	1175.5
1325.58	1193.5
1323.74	1214
1321.9	1260
1320.06	1301
1318.21	1302
1316.37	1355
1314.53	1379
1312.68	1450.5
1310.84	1513.5
1308.99	1541.5
1307.15	1647.5
1305.3	1682
1303.45	1715
1301.61	1748.5
1299.76	1739.5
1297.91	1749.5
1296.06	1669.5
1294.21	1593.5
1292.36	1500
1290.51	1439.5
1288.66	1405.5
1286.81	1354.5
1284.96	1342.5
1283.11	1341
1281.26	1336
1279.4	1344
1277.55	1368
1275.7	1361
1273.84	1357
1271.99	1367.5
1270.13	1386.5
1268.28	1372.5
1266.42	1382.5
1264.56	1376.5
1262.71	1373
1260.85	1377.5
1258.99	1347
1257.13	1312.5
1255.27	1294
1253.41	1286.5
1251.56	1262
1249.7	1227.5
1247.83	1219.5
1245.97	1216.5
1244.11	1194.5
1242.25	1194.5
1240.39	1179.5
1238.52	1149
1236.66	1177.5
1234.8	1153
1232.93	1143
1231.07	1149.5
1229.2	1165.5
1227.34	1157.5
1225.47	1150.5
1223.6	1103.5
1221.74	1111
1219.87	1127.5
1218	1111
1216.13	1107.5
1214.26	1105
1212.39	1107.5
1210.53	1106
1208.65	1122.5
1206.78	1119
1204.91	1114
1203.04	1098.5
1201.17	1127
1199.3	1109
1197.42	1105.5
1195.55	1116.5
1193.68	1106.5
1191.8	1097.5
1189.93	1118
1188.05	1118
1186.17	1113.5
1184.3	1111
1182.42	1140.5
1180.54	1140.5
1178.67	1143.5
1176.79	1135
1174.91	1116
1173.03	1140.5
1171.15	1127
1169.27	1141.5
1167.39	1128.5
1165.51	1145
1163.63	1131.5
1161.75	1117
1159.86	1148
1157.98	1160.5
1156.1	1148
1154.21	1140.5
1152.33	1156.5
1150.44	1167
1148.56	1169.5
1146.67	1143.5
1144.79	1177.5
1142.9	1193
1141.01	1204.5
1139.12	1217
1137.24	1245.5
1135.35	1283.5
1133.46	1343
1131.57	1366
1129.68	1423
1127.79	1404.5
1125.9	1419
1124.01	1390
1122.12	1388.5
1120.22	1367.5
1118.33	1366.5
1116.44	1369.5
1114.54	1380
1112.65	1367
1110.75	1365.5
1108.86	1360.5
1106.96	1396
1105.07	1394
1103.17	1413.5
1101.27	1431
1099.38	1478.5
1097.48	1473.5
1095.58	1511.5
1093.68	1532.5
1091.78	1540.5
1089.88	1565
1087.98	1568.5
1086.08	1600
1084.18	1612
1082.28	1601
1080.38	1613.5
1078.47	1600.5
1076.57	1610
1074.67	1582
1072.76	1598.5
1070.86	1598.5
1068.95	1599.5
1067.05	1633
1065.14	1673
1063.24	1670.5
1061.33	1681.5
1059.42	1600.5
1057.51	1562
1055.6	1537.5
1053.7	1493
1051.79	1491.5
1049.88	1494.5
1047.97	1484
1046.06	1457.5
1044.14	1461
1042.23	1480.5
1040.32	1459.5
1038.41	1461
1036.5	1470
1034.58	1421.5
1032.67	1451.5
1030.75	1425.5
1028.84	1421.5
1026.92	1425.5
1025.01	1392
1023.09	1405
1021.17	1438
1019.26	1424.5
1017.34	1421.5
1015.42	1400.5
1013.5	1421.5
1011.58	1415.5
1009.66	1402.5
1007.74	1405.5
1005.82	1389
1003.9	1413
1001.98	1405.5
1000.06	1401.5
998.134	1432.5
996.212	1411
994.288	1403
992.364	1405.5
990.44	1464.5
988.515	1465.5
986.589	1456.5
984.663	1520.5
982.737	1507
980.81	1537.5
978.883	1579.5
976.955	1569.5
975.027	1616.5
973.098	1595
971.169	1605.5
969.239	1581.5
967.308	1583.5
965.378	1602
963.447	1568.5
961.516	1592
959.583	1622
957.65	1628.5
955.718	1615.5
953.784	1608.5
951.85	1613.5
949.916	1626.5
947.981	1646.5
946.045	1656
944.109	1636
942.173	1650.5
940.236	1656.5
938.298	1672
936.36	1666
934.422	1664.5
932.484	1641
930.544	1645.5
928.604	1612
926.664	1626
924.724	1627.5
922.782	1632
920.84	1637.5
918.898	1612
916.955	1648.5
915.012	1661
913.068	1655.5
911.124	1668
909.18	1675
907.235	1680
905.289	1648.5
903.343	1712
901.397	1680
899.45	1696.5
897.502	1708.5
895.554	1762.5
893.605	1784
891.657	1801
889.707	1833.5
887.758	1812.5
885.807	1838
883.856	1821
881.905	1808.5
879.953	1847.5
878.001	1861.5
876.048	1884.5
874.094	1872.5
872.14	1872.5
870.186	1881.5
868.232	1879.5
866.276	1877.5
864.321	1865
862.365	1872
860.408	1852
858.451	1867.5
856.493	1867
854.535	1863
852.576	1863.5
850.617	1859.5
848.658	1872.5
846.698	1828
844.737	1869
842.776	1853
840.814	1830.5
838.852	1817
836.89	1826
834.927	1842.5
832.963	1850.5
830.999	1868.5
829.035	1825
827.07	1798
825.105	1764
823.139	1716
821.172	1729
819.206	1674
817.238	1694
815.27	1665
813.301	1672
811.333	1650.5
809.363	1662.5
807.394	1634
805.424	1640
803.453	1597
801.482	1579
799.509	1593
797.538	1583.5
795.565	1571.5
793.592	1564.5
791.618	1537
789.643	1551
787.669	1540
785.693	1570
783.718	1545.5
781.742	1571.5
779.765	1562.5
777.788	1564
775.811	1600
773.832	1553.5
771.853	1583.5
769.875	1572
767.895	1570.5
765.915	1547.5
763.934	1577.5
761.953	1545.5
759.972	1605.5
757.99	1551
756.007	1548
754.024	1570.5
752.041	1581
750.056	1582
748.072	1559
746.087	1603
744.102	1572
742.116	1601.5
740.13	1598
738.143	1592
736.155	1587
734.167	1619.5
732.179	1587.5
730.19	1610
728.2	1610.5
726.21	1617
724.22	1624
722.229	1611.5
720.237	1595
718.246	1603
716.253	1614
714.26	1626.5
712.267	1591.5
710.273	1652
708.279	1618
706.284	1589.5
704.289	1593
702.293	1610
700.296	1615.5
698.3	1575.5
696.303	1600
694.305	1600.5
692.307	1620
690.307	1608.5
688.308	1602.5
686.309	1635
684.308	1630
682.308	1627
680.306	1648.5
678.304	1629
676.302	1638.5
674.3	1640
672.296	1654
670.293	1625.5
668.289	1642.5
666.284	1637
664.278	1652
662.273	1662
660.266	1642.5
658.26	1650.5
656.252	1665.5
654.244	1667.5
652.237	1662
650.227	1690
648.218	1660
646.209	1659
644.198	1676.5
642.188	1679.5
640.177	1704.5
638.165	1711.5
636.153	1668.5
634.14	1718.5
632.128	1688.5
630.113	1717.5
628.099	1721.5
626.085	1737
624.07	1760.5
622.054	1742.5
620.038	1761
618.021	1783.5
616.004	1776
613.986	1811
611.968	1809
609.949	1804.5
607.93	1800.5
605.911	1838.5
603.891	1817.5
601.87	1821
599.848	1849.5
597.827	1796.5
595.805	1787.5
593.782	1820
591.759	1786
589.735	1810
587.711	1799
585.687	1774
583.661	1812
581.636	1806.5
579.609	1797.5
577.583	1785
575.555	1797
573.527	1829.5
571.5	1792
569.471	1813
567.441	1816.5
565.412	1816
563.382	1823.5
561.351	1853.5
559.32	1831
557.289	1857.5
555.257	1891.5
553.223	1911.5
551.19	1901
549.157	1922
547.122	1986.5
545.088	1979.5
543.053	1990
541.017	2036.5
538.981	2068.5
536.943	2115
534.907	2222
532.869	2386.5
530.831	2633
528.792	3080.5
526.752	3847.5
524.713	4967
522.673	6051
520.632	6237.5
518.591	5508
516.549	4466.5
514.507	3559.5
512.464	2913
510.42	2527.5
508.377	2334
506.332	2208
504.288	2130.5
502.242	2096
500.196	2047.5
498.15	2047
496.104	2070
494.056	2038
492.008	2030
489.96	2048
487.911	2021
485.862	2030
483.812	2008.5
481.761	2036.5
479.71	2003.5
477.659	2018.5
475.607	2010.5
473.555	2008.5
471.502	2012.5
469.448	2027
467.395	2052.5
465.34	2012.5
463.285	2013
461.23	2034
459.174	2043.5
457.118	2034.5
455.061	2026
453.003	2071.5
450.945	2055.5
448.887	2046.5
446.828	2083
444.768	2065.5
442.708	2087.5
440.647	2090
438.587	2079
436.525	2098
434.463	2116.5
432.4	2128.5
430.337	2122
428.274	2125
426.21	2170.5
424.145	2140.5
422.079	2176.5
420.014	2154
417.948	2145.5
415.882	2147.5
413.814	2160
411.746	2126.5
409.679	2173.5
407.609	2173.5
405.54	2145.5
403.47	2173
401.401	2169
399.329	2164.5
397.258	2157.5
395.187	2180.5
393.114	2175
391.041	2155.5
388.968	2163
386.895	2193
384.82	2189.5
382.745	2197
380.67	2183
378.594	2191.5
376.517	2190.5
374.44	2171
372.363	2209.5
370.286	2170.5
368.207	2230.5
366.128	2203.5
364.049	2236.5
361.969	2236
359.888	2243.5
357.807	2259
355.725	2255
353.643	2269.5
351.561	2256.5
349.477	2271.5
347.394	2261
345.31	2303.5
343.226	2288
341.141	2303.5
339.055	2309.5
336.968	2303
334.882	2320
332.795	2328.5
330.707	2313.5
328.618	2345
326.53	2354.5
324.44	2347.5
322.351	2359
320.26	2396
318.17	2389
316.078	2442.5
313.987	2429
311.895	2457
309.802	2466
307.708	2505.5
305.614	2548
303.52	2550.5
301.425	2548
299.329	2513
297.233	2539
295.137	2500
293.039	2513.5
290.942	2492.5
288.844	2499
286.745	2513
284.647	2541
282.546	2525
280.446	2508.5
278.346	2517.5
276.245	2534
274.143	2571
272.041	2553.5
269.939	2534.5
267.835	2558.5
265.731	2574.5
263.627	2564
261.522	2573.5
259.417	2599
257.311	2629.5
255.204	2613.5
253.098	2584.5
250.99	2616
248.882	2634.5
246.774	2668.5
244.664	2644
242.555	2692
240.445	2682
238.334	2706
236.223	2715
234.112	2694.5
232	2727
229.888	2728
227.775	2759.5
225.661	2801.5
223.546	2798
221.431	2798.5
219.316	2830
217.201	2803.5
215.084	2825.5
212.967	2868
210.85	2848.5
208.732	2875
206.614	2869
204.495	2832.5
202.375	2871
200.256	2850.5
198.135	2891.5
196.014	2858
193.893	2865.5
191.771	2890
189.648	2867
187.525	2884.5
185.401	2905
183.277	2876.5
181.152	2887.5
179.027	2905.5
176.901	2880
174.775	2907.5
172.648	2890
170.521	2917.5
168.393	2932.5
166.265	2956
164.136	2961
162.007	2995.5
159.876	3021
157.746	3043.5
155.615	3080.5
153.483	3098
151.351	3115.5
149.219	3181
147.086	3259.5
144.952	3316
142.818	3342.5
140.684	3411
138.548	3493
136.413	3525
134.276	3640
132.139	3679
130.002	3791.5
127.864	3849.5
125.725	3891
123.587	3972.5
121.447	4058
119.307	4155.5
117.166	4179.5
115.026	4242
112.885	4322.5
110.743	4395.5
108.6	4431.5
106.456	4471
104.313	4462
102.169	4383
100.023	4292.5
97.8789	4031
95.7328	3710
93.5869	3204
91.4392	2767.5
89.2919	2277
87.1447	1778.5
84.9959	1347
