3528.51	170.5
3527.23	177
3525.95	195
3524.67	176
3523.39	193
3522.1	181
3520.82	194.5
3519.54	183
3518.26	193.5
3516.97	189.5
3515.69	164.5
3514.4	196
3513.12	185
3511.84	189
3510.55	202
3509.26	196.5
3507.98	185
3506.69	201
3505.41	199.5
3504.12	190
3502.83	162
3501.54	230.5
3500.26	188
3498.97	210.5
3497.68	204
3496.39	230
3495.1	190
3493.81	228
3492.52	177.5
3491.23	204
3489.94	186
3488.65	211
3487.36	203
3486.07	217
3484.78	225
3483.49	240.5
3482.19	247
3480.9	224.5
3479.61	231.5
3478.31	272
3477.02	268
3475.73	266
3474.43	263
3473.14	248.5
3471.84	239
3470.54	240.5
3469.25	256
3467.95	253.5
3466.66	242.5
3465.36	259
3464.06	258
3462.76	256
3461.46	276
3460.17	277
3458.87	267
3457.57	285
3456.27	279.5
3454.97	263
3453.67	273.5
3452.37	265
3451.07	267
3449.77	263
3448.47	272.5
3447.16	278
3445.86	298.5
3444.56	314
3443.26	287
3441.95	320.5
3440.65	301
3439.35	310.5
3438.04	318
3436.74	302.5
3435.43	327.5
3434.13	330
3432.82	341.5
3431.52	315
3430.21	351
3428.9	341
3427.6	372
3426.29	372
3424.98	404
3423.67	367
3422.36	359
3421.06	399
3419.75	401
3418.44	406
3417.13	384.5
3415.82	407
3414.51	433.5
3413.2	450.5
3411.88	408
3410.57	437.5
3409.26	399
3407.95	449.5
3406.64	442
3405.32	412
3404.01	459
3402.7	465
3401.38	432.5
3400.07	444.5
3398.75	449.5
3397.44	468
3396.12	464
3394.81	446
3393.49	484.5
3392.18	506.5
3390.86	482
3389.54	481.5
3388.23	469
3386.91	517.5
3385.59	500
3384.27	538
3382.95	498
3381.63	487
3380.31	518.5
3378.99	511
3377.67	499
3376.35	552
3375.03	550.5
3373.71	535.5
3372.39	531
3371.07	515.5
3369.75	561
3368.42	567
3367.1	550
3365.78	566
3364.45	536
3363.13	528
3361.81	562
3360.48	563.5
3359.16	559
3357.83	561.5
3356.51	571
3355.18	579
3353.85	617
3352.53	611.5
3351.2	574.5
3349.87	571.5
3348.54	607
3347.22	598.5
3345.89	626
3344.56	601
3343.23	602.5
3341.9	616.5
3340.57	627.5
3339.24	629.5
3337.91	589
3336.58	621
3335.25	638
3333.92	632
3332.58	592
3331.25	596.5
3329.92	621.5
3328.59	650.5
3327.25	667
3325.92	641.5
3324.58	630.5
3323.25	595
3321.92	643.5
3320.58	645
3319.25	662
3317.91	678
3316.57	672.5
3315.24	643
3313.9	686
3312.56	666
3311.23	687.5
3309.89	674
3308.55	683.5
3307.21	715
3305.87	670.5
3304.53	676.5
3303.19	701
3301.85	705.5
3300.51	692.5
3299.17	692
3297.83	696
3296.49	691
3295.15	710.5
3293.81	709
3292.46	731
3291.12	720.5
3289.78	700
3288.43	736.5
3287.09	678
3285.75	712.5
3284.4	741
3283.06	733.5
3281.71	734
3280.37	739
3279.02	745.5
3277.67	738
3276.33	741.5
3274.98	728
3273.63	780
3272.28	743.5
3270.94	768
3269.59	735
3268.24	779
3266.89	766.5
3265.54	765.5
3264.19	768.5
3262.84	792
3261.49	795
3260.14	793
3258.79	815.5
3257.44	805.5
3256.08	732
3254.73	850.5
3253.38	854
3252.03	855.5
3250.67	887
3249.32	894
3247.96	896.5
3246.61	943
3245.26	961
3243.9	953
3242.54	1006
3241.19	1000
3239.83	1051
3238.48	1108.5
3237.12	1100
3235.76	1144
3234.41	1111.5
3233.05	1158
3231.69	1223
3230.33	1256.5
3228.97	1283.5
3227.61	1297.5
3226.25	1325
3224.89	1333
3223.53	1389.5
3222.17	1418.5
3220.81	1436
3219.45	1470
3218.09	1465
3216.72	1537.5
3215.36	1561
3214	1528
3212.63	1601.5
3211.27	1603.5
3209.91	1648
3208.54	1648.5
3207.18	1632
3205.81	1683
3204.45	1699
3203.08	1712
3201.71	1686
3200.35	1725.5
3198.98	1706
3197.61	1714
3196.25	1745.5
3194.88	1763
3193.51	1758.5
3192.14	1787.5
3190.77	1768
3189.4	1790.5
3188.03	1825.5
3186.66	1792
3185.29	1816.5
3183.92	1815
3182.55	1863
3181.18	1805
3179.81	1879.5
3178.44	1852
3177.06	1886.5
3175.69	1847
3174.32	1895.5
3172.94	1886.5
3171.57	1876
3170.2	1921
3168.82	1890
3167.45	1952.5
3166.07	1990
3164.69	1966.5
3163.32	2011
3161.94	2041
3160.56	2061
3159.19	2064
3157.81	2044
3156.43	2058.5
3155.05	2100
3153.67	2143.5
3152.3	2133
3150.92	2140.5
3149.54	2137.5
3148.16	2247.5
3146.78	2193.5
3145.4	2213.5
3144.01	2240.5
3142.63	2209
3141.25	2250.5
3139.87	2218
3138.49	2329.5
3137.1	2304
3135.72	2320
3134.34	2301
3132.95	2345
3131.57	2354.5
3130.18	2368
3128.8	2318.5
3127.41	2397.5
3126.03	2422.5
3124.64	2438
3123.25	2418
3121.87	2433.5
3120.48	2485
3119.09	2465
3117.7	2492
3116.32	2512.5
3114.93	2510
3113.54	2521.5
3112.15	2554.5
3110.76	2575.5
3109.37	2537
3107.98	2623.5
3106.59	2606.5
3105.2	2580
3103.8	2632
3102.41	2630.5
3101.02	2661
3099.63	2656
3098.23	2626.5
3096.84	2706.5
3095.45	2704
3094.05	2696
3092.66	2732
3091.26	2723
3089.87	2710.5
3088.47	2751.5
3087.08	2769.5
3085.68	2763
3084.28	2763
3082.89	2787
3081.49	2809
3080.09	2776
3078.69	2782.5
3077.3	2810.5
3075.9	2820
3074.5	2826
3073.1	2844
3071.7	2846
3070.3	2848
3068.9	2854
3067.5	2835
3066.09	2886.5
3064.69	2858
3063.29	2847
3061.89	2845
3060.48	2865
3059.08	2874
3057.68	2855
3056.27	2948.5
3054.87	2930.5
3053.46	2919
3052.06	2909
3050.65	2964.5
3049.25	2998.5
3047.84	3012.5
3046.44	2954.5
3045.03	2970.5
3043.62	2989
3042.21	3036.5
3040.81	3041
3039.4	3062.5
3037.99	3030
3036.58	3079
3035.17	3047.5
3033.76	3080
3032.35	3084
3030.94	3072.5
3029.53	3049
3028.12	3100
3026.71	3048
3025.29	3059.5
3023.88	3072.5
3022.47	3037.5
3021.06	3082.5
3019.64	3122.5
3018.23	3125
3016.82	3080
3015.4	3128.5
3013.99	3139
3012.57	3107.5
3011.15	3118
3009.74	3157.5
3008.32	3150
3006.91	3189
3005.49	3220.5
3004.07	3178.5
3002.65	3196
3001.24	3199
2999.82	3185
2998.4	3193
2996.98	3183
2995.56	3210.5
2994.14	3292.5
2992.72	3249
2991.3	3255.5
2989.88	3266
2988.46	3299
2987.03	3333
2985.61	3319.5
2984.19	3388
2982.77	3363
2981.34	3374.5
2979.92	3366
2978.49	3412
2977.07	3467
2975.65	3490
2974.22	3486.5
2972.79	3448
2971.37	3502
2969.94	3485
2968.52	3573
2967.09	3527
2965.66	3564
2964.23	3582.5
2962.81	3589.5
2961.38	3608.5
2959.95	3619.5
2958.52	3619.5
2957.09	3600.5
2955.66	3657
2954.23	3658.5
2952.8	3651
2951.37	3652.5
2949.94	3699
2948.5	3688.5
2947.07	3709.5
2945.64	3724.5
2944.21	3685
2942.77	3696
2941.34	3745.5
2939.91	3690
2938.47	3753.5
2937.04	3734
2935.6	3827.5
2934.17	3819
2932.73	3839
2931.29	3808.5
2929.86	3854.5
2928.42	3790.5
2926.98	3817
2925.55	3865.5
2924.11	3907
2922.67	3885
2921.23	3860.5
2919.79	3907.5
2918.35	3917
2916.91	3900.5
2915.47	3928
2914.03	3951.5
2912.59	3916.5
2911.15	3897.5
2909.71	3991.5
2908.26	3981
2906.82	3911.5
2905.38	3936.5
2903.94	3953.5
2902.49	4022.5
2901.05	3979.5
2899.6	4024
2898.16	3943.5
2896.71	4090.5
2895.27	4020.5
2893.82	4042.5
2892.38	4011.5
2890.93	4002
2889.48	4074.5
2888.03	4016.5
2886.59	4040.5
2885.14	4031
2883.69	4036.5
2882.24	4097.5
2880.79	4058
2879.34	4117.5
2877.89	4052
2876.44	4026.5
2874.99	4058
2873.54	4007
2872.09	4061
2870.64	4069
2869.18	3996
2867.73	4116.5
2866.28	4067
2864.83	4087
2863.37	4108.5
2861.92	4049
2860.46	4082
2859.01	4121.5
2857.55	4065
2856.1	4092.5
2854.64	4154
2853.19	4096.5
2851.73	4093
2850.27	4072.5
2848.81	4084
2847.36	4126
2845.9	4066
2844.44	4066.5
2842.98	4081
2841.52	4004
2840.06	4007
2838.6	4021
2837.14	4016
2835.68	4063
2834.22	3992
2832.76	4015
2831.3	3963
2829.83	4006
2828.37	4017
2826.91	3958
2825.44	4028
2823.98	3914
2822.52	3980
2821.05	3964.5
2819.59	3945
2818.12	3926
2816.66	3923
2815.19	3960
2813.72	3894.5
2812.26	3864.5
2810.79	3918.5
2809.32	3842
2807.85	3851.5
2806.38	3881
2804.92	3888
2803.45	3870
2801.98	3867
2800.51	3824
2799.04	3880
2797.57	3832
2796.1	3828
2794.62	3837
2793.15	3840
2791.68	3829
2790.21	3784
2788.73	3843.5
2787.26	3843.5
2785.79	3813
2784.31	3821
2782.84	3825.5
2781.36	3867.5
2779.89	3789
2778.41	3818.5
2776.94	3801.5
2775.46	3854
2773.99	3825
2772.51	3789.5
2771.03	3801.5
2769.55	3806.5
2768.07	3828
2766.6	3830.5
2765.12	3813
2763.64	3858
2762.16	3854.5
2760.68	3774
2759.2	3843
2757.72	3815
2756.24	3810
2754.75	3845
2753.27	3820
2751.79	3798.5
2750.31	3810
2748.82	3832.5
2747.34	3761
2745.86	3769.5
2744.37	3807
2742.89	3752
2741.4	3787.5
2739.92	3789.5
2738.43	3742.5
2736.94	3815.5
2735.46	3773
2733.97	3753.5
2732.48	3794.5
2731	3734
2729.51	3756
2728.02	3819
2726.53	3827
2725.04	3810
2723.55	3798.5
2722.06	3817
2720.57	3762
2719.08	3783
2717.59	3794
2716.1	3791.5
2714.61	3827.5
2713.11	3792
2711.62	3752.5
2710.13	3756
2708.64	3811.5
2707.14	3774
2705.65	3742.5
2704.15	3715
2702.66	3700.5
2701.16	3704
2699.67	3737
2698.17	3703
2696.67	3664.5
2695.18	3669.5
2693.68	3659
2692.18	3683
2690.69	3639.5
2689.19	3654
2687.69	3631
2686.19	3634.5
2684.69	3619
2683.19	3673.5
2681.69	3672
2680.19	3617
2678.69	3653.5
2677.19	3662.5
2675.68	3625.5
2674.18	3664
2672.68	3624.5
2671.18	3616
2669.67	3616
2668.17	3578.5
2666.66	3593
2665.16	3600.5
2663.66	3595
2662.15	3587.5
2660.64	3596
2659.14	3560
2657.63	3547
2656.13	3535
2654.62	3584
2653.11	3595
2651.6	3523
2650.09	3571
2648.58	3533
2647.08	3506.5
2645.57	3544.5
2644.06	3574
2642.55	3565
2641.04	3577
2639.52	3521
2638.01	3499.5
2636.5	3480
2634.99	3506
2633.48	3506
2631.96	3455.5
2630.45	3478
2628.94	3471.5
2627.42	3515.5
2625.91	3451
2624.39	3477
2622.88	3469
2621.36	3418.5
2619.85	3471
2618.33	3498
2616.81	3420.5
2615.3	3436
2613.78	3439
2612.26	3478
2610.74	3445
2609.22	3397.5
2607.7	3376.5
2606.18	3377
2604.66	3342.5
2603.14	3362.5
2601.62	3335.5
2600.1	3323.5
2598.58	3371.5
2597.06	3283.5
2595.54	3335.5
2594.01	3280
2592.49	3315
2590.97	3323
2589.44	3304.5
2587.92	3270.5
2586.39	3296.5
2584.87	3291
2583.34	3292
2581.82	3242
2580.29	3312.5
2578.76	3295.5
2577.24	3271
2575.71	3296
2574.18	3239.5
2572.65	3272.5
2571.13	3222
2569.6	3204.5
2568.07	3214
2566.54	3217
2565.01	3203.5
2563.48	3203
2561.95	3178
2560.42	3211.5
2558.88	3183
2557.35	3159.5
2555.82	3188
2554.29	3111.5
2552.75	3152
2551.22	3134.5
2549.69	3112.5
2548.15	3178.5
2546.62	3134.5
2545.08	3191.5
2543.55	3144
2542.01	3117
2540.47	3158.5
2538.94	3105
2537.4	3078
2535.86	3079
2534.33	3020
2532.79	3069.5
2531.25	3075
2529.71	3059
2528.17	3075
2526.63	3047
2525.09	3024
2523.55	3058.5
2522.01	3035.5
2520.47	3028
2518.92	3001.5
2517.38	3025
2515.84	2993
2514.3	2971
2512.75	2946
2511.21	2971
2509.67	2979
2508.12	2939
2506.58	2961.5
2505.03	2924
2503.49	2842.5
2501.94	2934
2500.39	2897
2498.85	2861
2497.3	2818
2495.75	2879
2494.2	2868
2492.65	2855.5
2491.11	2823
2489.56	2820.5
2488.01	2812
2486.46	2782.5
2484.91	2760.5
2483.36	2802
2481.8	2767.5
2480.25	2763
2478.7	2723
2477.15	2787
2475.6	2783.5
2474.04	2739
2472.49	2730.5
2470.93	2733.5
2469.38	2689
2467.83	2760.5
2466.27	2691
2464.71	2679.5
2463.16	2632
2461.6	2625
2460.05	2638
2458.49	2636
2456.93	2648.5
2455.37	2626.5
2453.81	2582
2452.26	2644.5
2450.7	2531
2449.14	2583
2447.58	2585.5
2446.02	2584.5
2444.46	2534.5
2442.9	2532.5
2441.33	2560.5
2439.77	2508
2438.21	2512
2436.65	2559
2435.08	2547.5
2433.52	2509
2431.96	2461
2430.39	2452
2428.83	2437.5
2427.26	2509
2425.7	2482.5
2424.13	2472
2422.56	2443.5
2421	2439.5
2419.43	2434
2417.86	2443.5
2416.3	2410.5
2414.73	2427
2413.16	2380.5
2411.59	2357.5
2410.02	2405
2408.45	2388.5
2406.88	2377
2405.31	2425
2403.74	2394
2402.17	2370.5
2400.6	2352
2399.02	2334.5
2397.45	2384.5
2395.88	2359
2394.3	2305.5
2392.73	2304
2391.16	2295
2389.58	2311.5
2388.01	2373
2386.43	2326
2384.86	2298
2383.28	2315
2381.7	2332
2380.13	2258
2378.55	2285
2376.97	2270
2375.39	2291
2373.81	2278
2372.23	2274.5
2370.65	2256
2369.07	2286.5
2367.49	2263
2365.91	2266.5
2364.33	2252.5
2362.75	2246
2361.17	2238
2359.59	2223
2358.01	2174
2356.42	2176
2354.84	2211
2353.25	2188
2351.67	2186.5
2350.09	2194.5
2348.5	2146.5
2346.92	2211
2345.33	2186
2343.74	2159.5
2342.16	2116
2340.57	2169
2338.98	2191
2337.39	2105.5
2335.81	2154
2334.22	2166
2332.63	2111
2331.04	2133
2329.45	2186.5
2327.86	2155
2326.27	2132.5
2324.68	2109.5
2323.09	2084
2321.49	2116
2319.9	2102
2318.31	2124
2316.72	2127
2315.12	2118.5
2313.53	2042
2311.93	2101
2310.34	2044.5
2308.74	2050.5
2307.15	2056
2305.55	2079
2303.96	2044
2302.36	1986.5
2300.76	2011
2299.17	2030.5
2297.57	1977.5
2295.97	1997.5
2294.37	1972
2292.77	1988.5
2291.17	1956.5
2289.57	1967.5
2287.97	1944.5
2286.37	1933.5
2284.77	1934.5
2283.17	1971.5
2281.57	1953.5
2279.96	1921.5
2278.36	1907.5
2276.76	1891
2275.15	1853
2273.55	1874
2271.95	1875
2270.34	1850.5
2268.74	1865.5
2267.13	1849.5
2265.52	1809
2263.92	1893
2262.31	1813
2260.7	1864
2259.1	1820
2257.49	1857
2255.88	1813.5
2254.27	1839
2252.66	1815
2251.05	1812
2249.44	1776
2247.83	1818.5
2246.22	1781
2244.61	1790
2243	1794
2241.39	1813.5
2239.77	1777
2238.16	1755.5
2236.55	1776.5
2234.93	1746
2233.32	1755.5
2231.7	1734
2230.09	1749.5
2228.47	1746.5
2226.86	1698.5
2225.24	1705.5
2223.63	1733
2222.01	1709
2220.39	1694
2218.77	1670
2217.16	1714
2215.54	1711
2213.92	1673
2212.3	1603.5
2210.68	1641
2209.06	1635
2207.44	1668
2205.82	1627.5
2204.19	1634
2202.57	1615.5
2200.95	1615
2199.33	1565
2197.7	1586.5
2196.08	1607.5
2194.46	1567
2192.83	1580
2191.21	1565.5
2189.58	1534
2187.96	1586.5
2186.33	1554.5
2184.7	1577.5
2183.08	1572
2181.45	1528
2179.82	1560
2178.19	1523.5
2176.57	1538
2174.94	1534
2173.31	1531
2171.68	1512
2170.05	1512
2168.42	1542.5
2166.79	1560.5
2165.16	1538.5
2163.52	1503.5
2161.89	1493.5
2160.26	1482
2158.63	1494
2156.99	1471
2155.36	1456
2153.73	1522.5
2152.09	1463.5
2150.46	1460
2148.82	1513
2147.18	1442.5
2145.55	1447.5
2143.91	1445.5
2142.27	1446
2140.64	1449
2139	1444.5
2137.36	1436
2135.72	1410
2134.08	1383.5
2132.44	1411
2130.8	1390.5
2129.16	1371
2127.52	1372
2125.88	1361.5
2124.24	1365.5
2122.6	1325.5
2120.95	1332.5
2119.31	1336.5
2117.67	1349
2116.02	1314.5
2114.38	1325
2112.74	1354
2111.09	1293
2109.45	1322
2107.8	1346
2106.15	1309.5
2104.51	1290
2102.86	1314
2101.21	1239
2099.56	1284.5
2097.92	1251
2096.27	1248.5
2094.62	1272.5
2092.97	1235.5
2091.32	1267.5
2089.67	1245.5
2088.02	1261
2086.37	1210.5
2084.72	1253
2083.06	1190.5
2081.41	1232.5
2079.76	1197
2078.1	1213.5
2076.45	1208
2074.8	1218.5
2073.14	1199
2071.49	1200.5
2069.83	1179.5
2068.18	1205
2066.52	1234
2064.86	1195
2063.21	1153.5
2061.55	1179
2059.89	1211
2058.23	1183.5
2056.57	1158
2054.92	1174
2053.26	1215
2051.6	1173
2049.94	1203
2048.27	1173
2046.61	1142
2044.95	1144.5
2043.29	1119
2041.63	1120
2039.97	1115
2038.3	1157.5
2036.64	1138.5
2034.97	1153.5
2033.31	1134
2031.64	1130
2029.98	1109.5
2028.31	1121
2026.65	1113.5
2024.98	1125
2023.31	1085
2021.65	1065
2019.98	1062
2018.31	1103.5
2016.64	1066.5
2014.97	1064.5
2013.3	1049
2011.63	1047
2009.96	1070.5
2008.29	1052
2006.62	1039.5
2004.95	1029
2003.28	1029
2001.6	1061
1999.93	1025
1998.26	1004
1996.58	1032.5
1994.91	1017.5
1993.24	998.5
1991.56	1030
1989.89	970
1988.21	1014
1986.53	1039
1984.86	977
1983.18	1037
1981.5	993
1979.82	977
1978.15	1008
1976.47	995.5
1974.79	943.5
1973.11	947
1971.43	953
1969.75	1000
1968.07	945
1966.38	960
1964.7	911.5
1963.02	958.5
1961.34	969
1959.66	951.5
1957.97	958.5
1956.29	984
1954.6	943.5
1952.92	933
1951.23	920
1949.55	903
1947.86	926.5
1946.18	918
1944.49	926.5
1942.8	887
1941.11	923
1939.43	879
1937.74	910
1936.05	919.5
1934.36	886.5
1932.67	876
1930.98	886.5
1929.29	915
1927.6	873
1925.91	875
1924.21	835
1922.52	831
1920.83	851.5
1919.14	869.5
1917.44	849.5
1915.75	832.5
1914.05	856.5
1912.36	840.5
1910.66	823
1908.97	821
1907.27	832.5
1905.58	794.5
1903.88	833
1902.18	810.5
1900.48	802
1898.79	827.5
1897.09	774
1895.39	804
1893.69	787.5
1891.99	820
1890.29	776
1888.59	797
1886.89	771.5
1885.18	742
1883.48	764.5
1881.78	740.5
1880.08	782
1878.37	750.5
1876.67	752
1874.96	769.5
1873.26	774
1871.55	714.5
1869.85	778
1868.14	724.5
1866.44	733
1864.73	725
1863.02	722.5
1861.32	712
1859.61	719.5
1857.9	718
1856.19	719
1854.48	710
1852.77	696
1851.06	692
1849.35	685.5
1847.64	729
1845.93	675
1844.21	714.5
1842.5	708.5
1840.79	686.5
1839.08	709.5
1837.36	705
1835.65	699.5
1833.93	686.5
1832.22	667.5
1830.5	696
1828.79	665.5
1827.07	666
1825.36	681
1823.64	662.5
1821.92	634
1820.2	646
1818.48	645.5
1816.77	664
1815.05	649.5
1813.33	655
1811.61	660.5
1809.89	657
1808.16	633
1806.44	629
1804.72	655
1803	631.5
1801.28	647.5
1799.55	617.5
1797.83	625
1796.11	638
1794.38	607
1792.66	618
1790.93	604
1789.21	583.5
1787.48	622.5
1785.75	614
1784.03	592.5
1782.3	592.5
1780.57	596
1778.84	612.5
1777.11	585.5
1775.38	589
1773.66	586
1771.93	597
1770.19	547
1768.46	609
1766.73	594
1765	592
1763.27	592
1761.54	593.5
1759.8	612
1758.07	639.5
1756.34	583.5
1754.6	598
1752.87	632
1751.13	592.5
1749.4	618
1747.66	607.5
1745.92	571
1744.19	597
1742.45	627.5
1740.71	633
1738.97	617
1737.23	582.5
1735.49	582.5
1733.75	541
1732.01	573
1730.27	547
1728.53	566.5
1726.79	574.5
1725.05	571.5
1723.31	556
1721.57	546
1719.82	520
1718.08	540
1716.34	501.5
1714.59	531.5
1712.85	540
1711.1	544.5
1709.36	543.5
1707.61	530
1705.86	554.5
1704.12	522
1702.37	541
1700.62	528
1698.87	510
1697.12	497
1695.37	513.5
1693.62	494.5
1691.87	512.5
1690.12	523.5
1688.37	507.5
1686.62	510
1684.87	509
1683.12	488.5
1681.36	503.5
1679.61	517.5
1677.86	523.5
1676.1	501.5
1674.35	507
1672.59	525
1670.84	516
1669.08	532
1667.33	538
1665.57	567.5
1663.81	555.5
1662.06	587.5
1660.3	593.5
1658.54	592
1656.78	624.5
1655.02	618
1653.26	603
1651.5	572
1649.74	547.5
1647.98	527.5
1646.22	535
1644.46	497
1642.7	489.5
1640.93	494.5
1639.17	480
1637.41	470
1635.64	450
1633.88	476.5
1632.11	433
1630.35	476
1628.58	471
1626.81	457
1625.05	439
1623.28	443.5
1621.51	441.5
1619.75	461.5
1617.98	431
1616.21	452
1614.44	420
1612.67	440
1610.9	427.5
1609.13	400
1607.36	455.5
1605.58	417
1603.81	418
1602.04	429
1600.27	434
1598.49	422
1596.72	418
1594.95	397.5
1593.17	440
1591.4	409.5
1589.62	422
1587.84	415
1586.07	426.5
1584.29	402.5
1582.51	425
1580.74	416
1578.96	395
1577.18	395
1575.4	419
1573.62	371
1571.84	390
1570.06	409.5
1568.28	399.5
1566.5	387.5
1564.72	386.5
1562.93	391.5
1561.15	387
1559.37	385
1557.58	389
1555.8	416
1554.02	399.5
1552.23	421
1550.45	382.5
1548.66	373.5
1546.87	411.5
1545.09	379
1543.3	399.5
1541.51	382.5
1539.72	396
1537.94	387
1536.15	370
1534.36	394
1532.57	400.5
1530.78	364.5
1528.99	375.5
1527.2	340
1525.4	382
1523.61	370.5
1521.82	374.5
1520.03	358
1518.23	360
1516.44	394
1514.65	352.5
1512.85	360.5
1511.06	361
1509.26	385
1507.46	379
1505.67	373.5
1503.87	367
1502.07	374
1500.28	378
1498.48	373
1496.68	369
1494.88	375
1493.08	365
1491.28	381
1489.48	409.5
1487.68	410
1485.88	393
1484.08	416.5
1482.27	424
1480.47	407
1478.67	435.5
1476.86	449
1475.06	449.5
1473.25	482
1471.45	492.5
1469.64	530.5
1467.84	567.5
1466.03	582
1464.23	606
1462.42	645.5
1460.61	682
1458.8	680.5
1456.99	682.5
1455.18	679
1453.37	739
1451.56	736
1449.75	737
1447.94	762
1446.13	781
1444.32	811
1442.51	825.5
1440.7	799
1438.88	733
1437.07	774
1435.26	719
1433.44	654
1431.63	618
1429.81	567
1427.99	519
1426.18	490.5
1424.36	471.5
1422.54	479
1420.73	449
1418.91	455.5
1417.09	406
1415.27	403
1413.45	370
1411.63	379
1409.81	384.5
1407.99	391
1406.17	365
1404.35	329
1402.53	349
1400.7	335
1398.88	329
1397.06	332.5
1395.23	368.5
1393.41	334.5
1391.58	334
1389.76	336
1387.93	329.5
1386.11	336.5
1384.28	322
1382.45	318
1380.62	330
1378.8	358
1376.97	360.5
1375.14	343.5
1373.31	329
1371.48	372.5
1369.65	341
1367.82	368
1365.99	351.5
1364.16	356
1362.32	355
1360.49	327
1358.66	366.5
1356.82	340
1354.99	334
1353.16	356.5
1351.32	355
1349.48	302
1347.65	336
1345.81	357.5
1343.98	339.5
1342.14	327
1340.3	336
1338.46	340
1336.62	338.5
1334.79	345
1332.95	365.5
1331.11	365.5
1329.27	383
1327.42	391.5
1325.58	392.5
1323.74	415
1321.9	407
1320.06	439.5
1318.21	407.5
1316.37	485
1314.53	455
1312.68	527.5
1310.84	529.5
1308.99	546.5
1307.15	569
1305.3	595
1303.45	600
1301.61	639.5
1299.76	586
1297.91	621.5
1296.06	570.5
1294.21	551.5
1292.36	511
1290.51	486
1288.66	474
1286.81	459
1284.96	405
1283.11	417
1281.26	469.5
1279.4	386
1277.55	434.5
1275.7	421
1273.84	418.5
1271.99	411
1270.13	424.5
1268.28	423
1266.42	421.5
1264.56	378.5
1262.71	443.5
1260.85	374
1258.99	373
1257.13	394.5
1255.27	383.5
1253.41	352
1251.56	341
1249.7	357.5
1247.83	320
1245.97	350
1244.11	334
1242.25	288
1240.39	309
1238.52	330.5
1236.66	284.5
1234.8	301
1232.93	290.5
1231.07	293.5
1229.2	289
1227.34	277.5
1225.47	324.5
1223.6	306
1221.74	276
1219.87	296
1218	283
1216.13	282
1214.26	249
1212.39	270
1210.53	255
1208.65	257
1206.78	287
1204.91	272.5
1203.04	289
1201.17	295
1199.3	270.5
1197.42	291.5
1195.55	256.5
1193.68	292.5
1191.8	262
1189.93	236
1188.05	279
1186.17	266
1184.3	277
1182.42	290.5
1180.54	250
1178.67	255.5
1176.79	258
1174.91	261
1173.03	248.5
1171.15	250
1169.27	277
1167.39	283
1165.51	287
1163.63	257.5
1161.75	274.5
1159.86	296
1157.98	257.5
1156.1	255.5
1154.21	287.5
1152.33	253
1150.44	293.5
1148.56	274
1146.67	255
1144.79	285
1142.9	261
1141.01	269
1139.12	277
1137.24	302.5
1135.35	303
1133.46	334
1131.57	329.5
1129.68	351
1127.79	367.5
1125.9	347
1124.01	357
1122.12	331
1120.22	342
1118.33	332
1116.44	322
1114.54	355
1112.65	345.5
1110.75	337
1108.86	323
1106.96	329
1105.07	330
1103.17	364.5
1101.27	367.5
1099.38	389
1097.48	385
1095.58	432.5
1093.68	422.5
1091.78	444
1089.88	455.5
1087.98	429
1086.08	465
1084.18	456
1082.28	470.5
1080.38	427
1078.47	518
1076.57	441
1074.67	445
1072.76	444.5
1070.86	463.5
1068.95	421.5
1067.05	473.5
1065.14	443
1063.24	465
1061.33	463.5
1059.42	439.5
1057.51	411
1055.6	381
1053.7	333
1051.79	349
1049.88	354
1047.97	351.5
1046.06	363
1044.14	341
1042.23	342.5
1040.32	356
1038.41	342
1036.5	349
1034.58	326.5
1032.67	332.5
1030.75	324
1028.84	339
1026.92	331
1025.01	350
1023.09	325
1021.17	356
1019.26	341.5
1017.34	337.5
1015.42	330
1013.5	317
1011.58	321.5
1009.66	351.5
1007.74	368.5
1005.82	334.5
1003.9	320
1001.98	324.5
1000.06	322
998.134	297
996.212	311
994.288	368
992.364	352.5
990.44	384
988.515	343
986.589	372.5
984.663	394
982.737	389.5
980.81	392
978.883	396
976.955	422
975.027	430
973.098	439
971.169	464
969.239	446.5
967.308	424
965.378	429.5
963.447	404
961.516	455
959.583	446
957.65	446
955.718	451.5
953.784	446.5
951.85	437
949.916	445
947.981	444.5
946.045	449
944.109	509.5
942.173	515
940.236	480.5
938.298	495.5
936.36	490
934.422	435.5
932.484	433
930.544	441
928.604	400
926.664	401
924.724	394.5
922.782	387
920.84	369
918.898	346
916.955	377.5
915.012	381
913.068	368.5
911.124	342
909.18	365.5
907.235	364
905.289	332
903.343	372.5
901.397	389.5
899.45	364
897.502	366
895.554	375
893.605	410.5
891.657	392
889.707	435
887.758	413.5
885.807	434
883.856	418.5
881.905	410.5
879.953	442.5
878.001	423
876.048	408
874.094	424
872.14	406
870.186	441
868.232	427.5
866.276	450
864.321	415
862.365	411.5
860.408	382.5
858.451	434.5
856.493	391
854.535	410
852.576	410.5
850.617	423.5
848.658	418
846.698	397
844.737	385
842.776	380.5
840.814	404
838.852	364
836.89	375
834.927	360
832.963	337
830.999	362
829.035	325.5
827.07	310.5
825.105	328
823.139	324
821.172	323.5
819.206	305
817.238	315
815.27	284.5
813.301	300
811.333	309.5
809.363	288
807.394	297
805.424	276
803.453	263
801.482	267.5
799.509	272
797.538	284
795.565	248
793.592	255.5
791.618	245
789.643	249.5
787.669	244
785.693	252
783.718	235.5
781.742	244.5
779.765	250
777.788	260
775.811	241.5
773.832	249.5
771.853	240.5
769.875	251
767.895	240
765.915	204
763.934	235
761.953	269.5
759.972	255
757.99	238
756.007	224
754.024	253.5
752.041	248.5
750.056	222
748.072	237
746.087	268
744.102	228
742.116	237.5
740.13	267
738.143	232
736.155	254.5
734.167	245
732.179	255
730.19	255
728.2	250
726.21	246
724.22	253.5
722.229	214
720.237	288
718.246	235
716.253	242.5
714.26	230
712.267	237
710.273	231
708.279	229
706.284	234.5
704.289	218.5
702.293	226
700.296	246
698.3	233
696.303	217.5
694.305	238
692.307	225
690.307	228
688.308	241
686.309	229
684.308	244
682.308	230.5
680.306	270
678.304	245.5
676.302	238
674.3	256.5
672.296	251
670.293	247
668.289	236
666.284	259.5
664.278	242.5
662.273	225
660.266	252
658.26	251
656.252	240
654.244	254
652.237	233.5
650.227	230
648.218	263
646.209	245.5
644.198	272
642.188	235
640.177	272
638.165	252
636.153	274
634.14	263
632.128	270
630.113	242
628.099	280
626.085	264
624.07	264
622.054	249
620.038	279
618.021	273.5
616.004	264
613.986	269.5
611.968	291
609.949	272
607.93	284.5
605.911	245.5
603.891	259
601.87	292
599.848	235
597.827	265.5
595.805	259.5
593.782	259
591.759	275
589.735	271
587.711	260
585.687	266.5
583.661	258.5
581.636	265
579.609	301
577.583	281
575.555	267
573.527	241
571.5	265.5
569.471	241
567.441	279.5
565.412	266.5
563.382	282
561.351	289
559.32	274.5
557.289	270.5
555.257	291
553.223	289
551.19	325.5
549.157	334
547.122	344
545.088	338
543.053	366
541.017	394.5
538.981	401.5
536.943	486
534.907	585.5
532.869	701
530.831	976.5
528.792	1434
526.752	2257
524.713	3332
522.673	4388.5
520.632	4492
518.591	3753.5
516.549	2785.5
514.507	1858
512.464	1226
510.42	854.5
508.377	626
506.332	532
504.288	473
502.242	431
500.196	420.5
498.15	382
496.104	370
494.056	350
492.008	380.5
489.96	330
487.911	346.5
485.862	329
483.812	346
481.761	315
479.71	341.5
477.659	306
475.607	332.5
473.555	307
471.502	287
469.448	326
467.395	313
465.34	302.5
463.285	292
461.23	324.5
459.174	297
457.118	306
455.061	316
453.003	318
450.945	341
448.887	307
446.828	316
444.768	322
442.708	339.5
440.647	310
438.587	344.5
436.525	365.5
434.463	352.5
432.4	366.5
430.337	361
428.274	308
426.21	354
424.145	335
422.079	342.5
420.014	356.5
417.948	368.5
415.882	341.5
413.814	364
411.746	351.5
409.679	345
407.609	370.5
405.54	361.5
403.47	344
401.401	358
399.329	344
397.258	364.5
395.187	376
393.114	361.5
391.041	355
388.968	368
386.895	337
384.82	391.5
382.745	356.5
380.67	374
378.594	374
376.517	375.5
374.44	368
372.363	394.5
370.286	341.5
368.207	395
366.128	371
364.049	379.5
361.969	408.5
359.888	352
357.807	429
355.725	397
353.643	410
351.561	391
349.477	401
347.394	406.5
345.31	404.5
343.226	396
341.141	383
339.055	408
336.968	406.5
334.882	429
332.795	447
330.707	416.5
328.618	432
326.53	445
324.44	417.5
322.351	443
320.26	480
318.17	469.5
316.078	500.5
313.987	512
311.895	506.5
309.802	534
307.708	583
305.614	604
303.52	575.5
301.425	559
299.329	549.5
297.233	529.5
295.137	540
293.039	530
290.942	484
288.844	498
286.745	521
284.647	516.5
282.546	514
280.446	477
278.346	493.5
276.245	473
274.143	482.5
272.041	493
269.939	478.5
267.835	498
265.731	510
263.627	480
261.522	519
259.417	540
257.311	517
255.204	524.5
253.098	519
250.99	540
248.882	530.5
246.774	552.5
244.664	559
242.555	549.5
240.445	543
238.334	528
236.223	571.5
234.112	560
232	577
229.888	582.5
227.775	593.5
225.661	585.5
223.546	585
221.431	585
219.316	597
217.201	626.5
215.084	551
212.967	552
210.85	587
208.732	578
206.614	616.5
204.495	616
202.375	610
200.256	644
198.135	599
196.014	609
193.893	643
191.771	598
189.648	628
187.525	621
185.401	603
183.277	625.5
181.152	591
179.027	619
176.901	625
174.775	622
172.648	656.5
170.521	655
168.393	660
166.265	699.5
164.136	647
162.007	713
159.876	683
157.746	709
155.615	740
153.483	731.5
151.351	741
149.219	774
147.086	792
144.952	815
142.818	853
140.684	855
138.548	896
136.413	939
134.276	961
132.139	991.5
130.002	1040.5
127.864	1015
125.725	1094
123.587	1132
121.447	1160
119.307	1195.5
117.166	1266
115.026	1294.5
112.885	1347.5
110.743	1413.5
108.6	1455
106.456	1481.5
104.313	1468
102.169	1480
100.023	1447
97.8789	1394
95.7328	1304
93.5869	1145
91.4392	1003
89.2919	821
87.1447	670
84.9959	513.5
