3528.51	362
3527.23	359.5
3525.95	404
3524.67	398
3523.39	426.5
3522.1	427.5
3520.82	416
3519.54	399
3518.26	399.5
3516.97	389
3515.69	396.5
3514.4	432.5
3513.12	403
3511.84	418
3510.55	402
3509.26	407
3507.98	442
3506.69	400
3505.41	406
3504.12	472
3502.83	453.5
3501.54	445
3500.26	436
3498.97	463
3497.68	477.5
3496.39	471
3495.1	466
3493.81	475
3492.52	491
3491.23	510
3489.94	515
3488.65	512.5
3487.36	501
3486.07	524.5
3484.78	529
3483.49	529
3482.19	543
3480.9	564
3479.61	580
3478.31	554
3477.02	563
3475.73	542
3474.43	578
3473.14	597
3471.84	621
3470.54	605
3469.25	570
3467.95	595
3466.66	606
3465.36	607
3464.06	578.5
3462.76	583
3461.46	618.5
3460.17	649.5
3458.87	625
3457.57	649
3456.27	630
3454.97	618
3453.67	627
3452.37	641.5
3451.07	646.5
3449.77	647
3448.47	687.5
3447.16	703
3445.86	716
3444.56	698
3443.26	686
3441.95	733.5
3440.65	705
3439.35	735.5
3438.04	737.5
3436.74	769.5
3435.43	758
3434.13	803
3432.82	781
3431.52	815
3430.21	798
3428.9	865
3427.6	833
3426.29	919.5
3424.98	899.5
3423.67	890.5
3422.36	901
3421.06	893
3419.75	946.5
3418.44	935
3417.13	915
3415.82	971.5
3414.51	988.5
3413.2	975
3411.88	999
3410.57	941.5
3409.26	1012
3407.95	998
3406.64	999.5
3405.32	1038.5
3404.01	1029.5
3402.7	1081.5
3401.38	1073
3400.07	1060
3398.75	1055
3397.44	1083
3396.12	1065.5
3394.81	1093.5
3393.49	1082.5
3392.18	1073
3390.86	1130
3389.54	1118.5
3388.23	1146.5
3386.91	1165.5
3385.59	1144
3384.27	1181.5
3382.95	1189.5
3381.63	1200.5
3380.31	1207.5
3378.99	1240.5
3377.67	1206
3376.35	1207
3375.03	1288.5
3373.71	1258
3372.39	1279
3371.07	1282
3369.75	1287.5
3368.42	1289.5
3367.1	1328
3365.78	1333.5
3364.45	1345
3363.13	1339
3361.81	1349
3360.48	1358
3359.16	1357
3357.83	1322
3356.51	1388.5
3355.18	1394
3353.85	1372
3352.53	1385.5
3351.2	1411
3349.87	1389
3348.54	1417.5
3347.22	1436.5
3345.89	1423
3344.56	1445.5
3343.23	1415
3341.9	1412
3340.57	1422
3339.24	1453.5
3337.91	1407
3336.58	1475.5
3335.25	1447.5
3333.92	1467
3332.58	1470
3331.25	1478.5
3329.92	1473
3328.59	1471.5
3327.25	1483
3325.92	1549.5
3324.58	1515
3323.25	1514
3321.92	1515
3320.58	1550
3319.25	1573
3317.91	1607
3316.57	1567
3315.24	1538
3313.9	1566
3312.56	1572
3311.23	1609
3309.89	1591.5
3308.55	1557
3307.21	1623
3305.87	1633.5
3304.53	1642
3303.19	1624.5
3301.85	1620.5
3300.51	1645
3299.17	1661.5
3297.83	1652.5
3296.49	1651.5
3295.15	1690
3293.81	1668.5
3292.46	1686
3291.12	1666
3289.78	1674
3288.43	1707
3287.09	1643
3285.75	1693.5
3284.4	1725.5
3283.06	1729
3281.71	1752
3280.37	1746
3279.02	1780.5
3277.67	1725
3276.33	1717
3274.98	1820
3273.63	1810.5
3272.28	1800
3270.94	1771
3269.59	1821
3268.24	1863
3266.89	1801
3265.54	1868
3264.19	1850
3262.84	1913
3261.49	1932.5
3260.14	1968
3258.79	2012.5
3257.44	1994
3256.08	2070
3254.73	2147
3253.38	2167.5
3252.03	2156.5
3250.67	2241
3249.32	2271
3247.96	2329
3246.61	2427.5
3245.26	2453.5
3243.9	2516
3242.54	2569.5
3241.19	2687.5
3239.83	2695
3238.48	2790
3237.12	2895.5
3235.76	2943.5
3234.41	3017
3233.05	3126
3231.69	3160.5
3230.33	3239.5
3228.97	3271
3227.61	3413.5
3226.25	3467.5
3224.89	3438
3223.53	3553
3222.17	3640
3220.81	3674
3219.45	3699
3218.09	3715
3216.72	3815.5
3215.36	3769
3214	3882.5
3212.63	3852
3211.27	3885
3209.91	3982
3208.54	3984.5
3207.18	4021
3205.81	4008.5
3204.45	3995
3203.08	4040
3201.71	4077
3200.35	4050
3198.98	4122
3197.61	4135
3196.25	4183
3194.88	4132
3193.51	4159
3192.14	4189
3190.77	4272
3189.4	4280
3188.03	4218
3186.66	4239.5
3185.29	4333
3183.92	4307.5
3182.55	4333
3181.18	4391
3179.81	4356
3178.44	4368
3177.06	4467.5
3175.69	4462.5
3174.32	4498.5
3172.94	4582
3171.57	4606
3170.2	4659
3168.82	4626
3167.45	4714
3166.07	4744.5
3164.69	4730
3163.32	4800
3161.94	4809.5
3160.56	4796
3159.19	4920.5
3157.81	4888
3156.43	4914
3155.05	5043
3153.67	5050.5
3152.3	5139
3150.92	5108
3149.54	5178.5
3148.16	5169
3146.78	5274
3145.4	5237
3144.01	5264
3142.63	5328.5
3141.25	5346.5
3139.87	5382
3138.49	5409
3137.1	5453
3135.72	5507
3134.34	5488
3132.95	5493
3131.57	5607.5
3130.18	5610
3128.8	5660
3127.41	5764
3126.03	5786
3124.64	5814
3123.25	5863
3121.87	5874
3120.48	5926
3119.09	5949.5
3117.7	5980.5
3116.32	5996.5
3114.93	6067
3113.54	6015
3112.15	6098.5
3110.76	6149.5
3109.37	6209
3107.98	6181
3106.59	6197
3105.2	6209
3103.8	6209.5
3102.41	6251.5
3101.02	6241
3099.63	6262
3098.23	6406
3096.84	6383
3095.45	6399.5
3094.05	6445.5
3092.66	6500
3091.26	6496
3089.87	6472
3088.47	6505
3087.08	6531.5
3085.68	6516
3084.28	6586.5
3082.89	6634
3081.49	6577
3080.09	6638.5
3078.69	6621
3077.3	6682
3075.9	6657
3074.5	6610
3073.1	6604
3071.7	6647
3070.3	6712.5
3068.9	6735
3067.5	6723.5
3066.09	6744
3064.69	6808.5
3063.29	6775.5
3061.89	6813.5
3060.48	6850
3059.08	6839
3057.68	6872.5
3056.27	6845
3054.87	6904.5
3053.46	6961
3052.06	6960.5
3050.65	6933
3049.25	6931
3047.84	6964
3046.44	6983
3045.03	6986
3043.62	7112
3042.21	7070.5
3040.81	7030
3039.4	7172.5
3037.99	7137.5
3036.58	7218
3035.17	7106
3033.76	7180
3032.35	7176
3030.94	7225
3029.53	7292
3028.12	7338.5
3026.71	7221
3025.29	7251
3023.88	7326
3022.47	7277.5
3021.06	7245.5
3019.64	7305.5
3018.23	7357
3016.82	7298.5
3015.4	7355
3013.99	7371
3012.57	7314
3011.15	7418.5
3009.74	7446.5
3008.32	7485
3006.91	7410
3005.49	7515.5
3004.07	7503
3002.65	7533
3001.24	7564
2999.82	7545
2998.4	7529
2996.98	7663.5
2995.56	7651.5
2994.14	7721
2992.72	7745
2991.3	7729.5
2989.88	7824.5
2988.46	7866
2987.03	7858.5
2985.61	7845
2984.19	8021.5
2982.77	7955
2981.34	7963
2979.92	8044
2978.49	8053
2977.07	8172
2975.65	8270.5
2974.22	8288
2972.79	8334
2971.37	8279
2969.94	8361
2968.52	8376
2967.09	8422.5
2965.66	8360.5
2964.23	8451.5
2962.81	8440.5
2961.38	8412.5
2959.95	8490
2958.52	8508
2957.09	8549
2955.66	8576
2954.23	8522
2952.8	8642.5
2951.37	8518.5
2949.94	8634.5
2948.5	8652
2947.07	8613.5
2945.64	8666
2944.21	8711
2942.77	8749.5
2941.34	8825
2939.91	8751.5
2938.47	8794
2937.04	8850
2935.6	8832.5
2934.17	8865
2932.73	8967
2931.29	8930
2929.86	8966.5
2928.42	9042.5
2926.98	9039.5
2925.55	9079.5
2924.11	9066
2922.67	9035
2921.23	9073
2919.79	9169.5
2918.35	9166
2916.91	9160.5
2915.47	9132
2914.03	9268.5
2912.59	9243
2911.15	9275
2909.71	9233
2908.26	9281
2906.82	9312
2905.38	9264
2903.94	9337
2902.49	9395
2901.05	9494.5
2899.6	9358.5
2898.16	9330
2896.71	9414.5
2895.27	9471
2893.82	9417
2892.38	9443.5
2890.93	9399
2889.48	9517
2888.03	9422.5
2886.59	9441
2885.14	9473.5
2883.69	9495
2882.24	9485
2880.79	9508
2879.34	9482
2877.89	9533
2876.44	9559.5
2874.99	9620.5
2873.54	9613
2872.09	9586.5
2870.64	9610
2869.18	9550.5
2867.73	9557
2866.28	9631.5
2864.83	9683
2863.37	9657.5
2861.92	9638.5
2860.46	9589
2859.01	9559.5
2857.55	9596
2856.1	9601.5
2854.64	9700
2853.19	9663
2851.73	9617.5
2850.27	9617
2848.81	9701.5
2847.36	9598
2845.9	9695.5
2844.44	9704.5
2842.98	9666.5
2841.52	9558.5
2840.06	9580
2838.6	9547
2837.14	9540
2835.68	9516.5
2834.22	9514.5
2832.76	9544
2831.3	9454.5
2829.83	9420
2828.37	9430.5
2826.91	9444
2825.44	9409
2823.98	9358
2822.52	9468
2821.05	9396
2819.59	9443.5
2818.12	9315
2816.66	9336.5
2815.19	9304.5
2813.72	9284
2812.26	9238.5
2810.79	9286
2809.32	9111
2807.85	9277.5
2806.38	9261
2804.92	9216.5
2803.45	9182
2801.98	9216
2800.51	9200.5
2799.04	9185.5
2797.57	9299.5
2796.1	9139
2794.62	9182
2793.15	9132.5
2791.68	9195
2790.21	9139
2788.73	9139.5
2787.26	9114
2785.79	9113.5
2784.31	9127
2782.84	9204
2781.36	9184.5
2779.89	9193
2778.41	9126
2776.94	9166
2775.46	9186
2773.99	9208
2772.51	9185
2771.03	9222
2769.55	9244
2768.07	9370
2766.6	9222
2765.12	9312
2763.64	9399.5
2762.16	9340
2760.68	9195
2759.2	9304.5
2757.72	9348
2756.24	9279
2754.75	9253.5
2753.27	9265.5
2751.79	9356
2750.31	9322.5
2748.82	9324.5
2747.34	9352
2745.86	9311.5
2744.37	9304.5
2742.89	9306
2741.4	9352.5
2739.92	9228
2738.43	9169
2736.94	9186.5
2735.46	9281
2733.97	9261.5
2732.48	9251
2731	9263.5
2729.51	9232
2728.02	9236.5
2726.53	9167
2725.04	9165.5
2723.55	9095.5
2722.06	9169
2720.57	9223
2719.08	9199
2717.59	9136
2716.1	9182
2714.61	9182
2713.11	9172
2711.62	9102
2710.13	9226
2708.64	9171
2707.14	9150
2705.65	9201
2704.15	9064
2702.66	9125.5
2701.16	9108
2699.67	9133
2698.17	9105.5
2696.67	9181
2695.18	9084
2693.68	9144
2692.18	9133
2690.69	9009
2689.19	8998
2687.69	9047
2686.19	9010
2684.69	9011
2683.19	9006
2681.69	8986.5
2680.19	8943
2678.69	8919
2677.19	8962
2675.68	8907
2674.18	8973
2672.68	8929
2671.18	8993
2669.67	8892
2668.17	8918
2666.66	8835
2665.16	8824
2663.66	8887.5
2662.15	8804
2660.64	8781
2659.14	8816
2657.63	8762
2656.13	8774
2654.62	8833.5
2653.11	8794.5
2651.6	8806
2650.09	8754
2648.58	8774.5
2647.08	8765
2645.57	8709.5
2644.06	8607.5
2642.55	8616
2641.04	8599
2639.52	8529.5
2638.01	8607
2636.5	8531
2634.99	8466
2633.48	8526
2631.96	8482.5
2630.45	8470
2628.94	8429
2627.42	8429
2625.91	8397.5
2624.39	8358
2622.88	8385.5
2621.36	8374.5
2619.85	8343
2618.33	8318.5
2616.81	8415
2615.3	8306.5
2613.78	8317
2612.26	8325
2610.74	8349
2609.22	8281
2607.7	8245.5
2606.18	8279.5
2604.66	8168
2603.14	8184.5
2601.62	8075.5
2600.1	8057
2598.58	8139.5
2597.06	8026.5
2595.54	7997
2594.01	8025
2592.49	7989
2590.97	8075.5
2589.44	7925
2587.92	7968.5
2586.39	7928
2584.87	8006
2583.34	7960.5
2581.82	7999.5
2580.29	7903
2578.76	7905.5
2577.24	7936.5
2575.71	7919
2574.18	7965.5
2572.65	7858.5
2571.13	7884
2569.6	7826
2568.07	7855
2566.54	7898
2565.01	7866.5
2563.48	7856
2561.95	7832
2560.42	7812.5
2558.88	7757
2557.35	7747
2555.82	7776.5
2554.29	7735.5
2552.75	7665
2551.22	7614.5
2549.69	7642.5
2548.15	7581.5
2546.62	7657
2545.08	7608.5
2543.55	7550
2542.01	7583.5
2540.47	7528
2538.94	7459
2537.4	7445
2535.86	7439.5
2534.33	7326
2532.79	7449.5
2531.25	7438.5
2529.71	7443
2528.17	7334.5
2526.63	7342
2525.09	7338
2523.55	7359
2522.01	7247
2520.47	7345.5
2518.92	7304
2517.38	7244.5
2515.84	7179
2514.3	7291.5
2512.75	7157.5
2511.21	7126
2509.67	7108
2508.12	7128.5
2506.58	7108
2505.03	7041
2503.49	7071
2501.94	7028
2500.39	6941
2498.85	6962
2497.3	6909
2495.75	6873
2494.2	6935
2492.65	6938.5
2491.11	6857.5
2489.56	6818
2488.01	6803.5
2486.46	6831
2484.91	6768
2483.36	6808
2481.8	6750
2480.25	6803
2478.7	6735.5
2477.15	6787.5
2475.6	6713.5
2474.04	6648
2472.49	6685.5
2470.93	6616.5
2469.38	6630.5
2467.83	6518
2466.27	6497.5
2464.71	6390
2463.16	6468
2461.6	6428.5
2460.05	6387
2458.49	6314
2456.93	6356
2455.37	6360
2453.81	6283
2452.26	6273
2450.7	6269.5
2449.14	6227
2447.58	6215
2446.02	6173
2444.46	6091.5
2442.9	6054.5
2441.33	6035.5
2439.77	6106.5
2438.21	6021.5
2436.65	6063.5
2435.08	6040.5
2433.52	6039
2431.96	6010.5
2430.39	6030
2428.83	5938
2427.26	5930
2425.7	6019.5
2424.13	5978.5
2422.56	5909.5
2421	5887
2419.43	5877.5
2417.86	5872
2416.3	5868
2414.73	5845.5
2413.16	5876
2411.59	5832
2410.02	5763.5
2408.45	5747
2406.88	5768
2405.31	5754
2403.74	5852
2402.17	5723.5
2400.6	5809
2399.02	5747.5
2397.45	5697
2395.88	5634
2394.3	5708
2392.73	5643
2391.16	5671.5
2389.58	5653.5
2388.01	5672
2386.43	5604
2384.86	5639
2383.28	5632
2381.7	5557
2380.13	5583
2378.55	5584
2376.97	5540
2375.39	5622.5
2373.81	5580
2372.23	5604
2370.65	5573
2369.07	5585.5
2367.49	5604.5
2365.91	5568
2364.33	5485
2362.75	5471
2361.17	5460
2359.59	5415
2358.01	5485.5
2356.42	5407
2354.84	5458.5
2353.25	5423.5
2351.67	5407.5
2350.09	5381.5
2348.5	5400.5
2346.92	5412.5
2345.33	5391
2343.74	5369.5
2342.16	5381
2340.57	5383
2338.98	5306
2337.39	5298.5
2335.81	5284
2334.22	5227
2332.63	5279.5
2331.04	5266.5
2329.45	5210
2327.86	5268
2326.27	5230
2324.68	5211
2323.09	5147.5
2321.49	5133.5
2319.9	5192
2318.31	5187
2316.72	5122
2315.12	4997
2313.53	5102.5
2311.93	5088.5
2310.34	5028.5
2308.74	5026
2307.15	5010
2305.55	5004.5
2303.96	4980
2302.36	4954.5
2300.76	4955
2299.17	4940
2297.57	4883
2295.97	4917.5
2294.37	4835.5
2292.77	4831
2291.17	4868
2289.57	4800
2287.97	4803.5
2286.37	4787.5
2284.77	4849.5
2283.17	4794.5
2281.57	4750
2279.96	4841.5
2278.36	4778.5
2276.76	4754
2275.15	4807.5
2273.55	4734.5
2271.95	4725.5
2270.34	4625
2268.74	4629
2267.13	4660
2265.52	4592
2263.92	4603
2262.31	4524.5
2260.7	4545.5
2259.1	4546.5
2257.49	4454
2255.88	4508
2254.27	4552.5
2252.66	4499
2251.05	4512.5
2249.44	4515
2247.83	4544
2246.22	4484
2244.61	4444
2243	4472
2241.39	4471
2239.77	4473.5
2238.16	4462.5
2236.55	4424
2234.93	4306
2233.32	4390.5
2231.7	4340
2230.09	4312.5
2228.47	4305
2226.86	4350.5
2225.24	4259
2223.63	4285.5
2222.01	4281.5
2220.39	4251
2218.77	4263
2217.16	4219
2215.54	4135.5
2213.92	4192.5
2212.3	4121.5
2210.68	4115.5
2209.06	4131
2207.44	4125
2205.82	4133
2204.19	4043.5
2202.57	4082.5
2200.95	4072.5
2199.33	4038.5
2197.7	4055
2196.08	4038.5
2194.46	4016
2192.83	3996
2191.21	3996
2189.58	4012
2187.96	3986
2186.33	3971
2184.7	3964.5
2183.08	3995
2181.45	3876.5
2179.82	3849
2178.19	3860.5
2176.57	3878.5
2174.94	3772
2173.31	3774
2171.68	3781
2170.05	3817
2168.42	3810.5
2166.79	3811
2165.16	3780
2163.52	3723
2161.89	3707.5
2160.26	3691.5
2158.63	3724
2156.99	3717
2155.36	3708
2153.73	3702
2152.09	3637
2150.46	3630
2148.82	3662
2147.18	3619.5
2145.55	3611.5
2143.91	3635
2142.27	3572
2140.64	3511
2139	3599
2137.36	3549
2135.72	3486.5
2134.08	3513
2132.44	3492
2130.8	3490
2129.16	3489
2127.52	3302
2125.88	3381.5
2124.24	3348
2122.6	3385.5
2120.95	3319
2119.31	3365.5
2117.67	3343.5
2116.02	3306
2114.38	3280
2112.74	3292
2111.09	3271
2109.45	3247.5
2107.8	3266
2106.15	3242
2104.51	3241.5
2102.86	3210
2101.21	3146
2099.56	3141
2097.92	3144
2096.27	3161
2094.62	3181
2092.97	3113
2091.32	3112
2089.67	3100.5
2088.02	3099
2086.37	3121
2084.72	3137
2083.06	3146.5
2081.41	3119
2079.76	3123.5
2078.1	3074.5
2076.45	3125
2074.8	3073.5
2073.14	3046
2071.49	3080
2069.83	3029
2068.18	3062
2066.52	3028
2064.86	3053.5
2063.21	2978
2061.55	3051.5
2059.89	2992.5
2058.23	2988
2056.57	3031
2054.92	2973
2053.26	3013.5
2051.6	2977.5
2049.94	2963.5
2048.27	2927
2046.61	2918
2044.95	2919.5
2043.29	2904.5
2041.63	2948
2039.97	2829.5
2038.3	2880
2036.64	2809
2034.97	2827
2033.31	2806
2031.64	2779.5
2029.98	2784
2028.31	2750.5
2026.65	2767
2024.98	2689
2023.31	2740
2021.65	2689
2019.98	2749.5
2018.31	2692
2016.64	2659
2014.97	2660.5
2013.3	2660
2011.63	2648.5
2009.96	2618.5
2008.29	2613.5
2006.62	2598.5
2004.95	2588
2003.28	2621
2001.6	2581.5
1999.93	2607.5
1998.26	2528
1996.58	2568.5
1994.91	2560
1993.24	2527.5
1991.56	2524
1989.89	2524
1988.21	2525
1986.53	2528.5
1984.86	2492
1983.18	2487
1981.5	2468
1979.82	2399
1978.15	2466.5
1976.47	2454
1974.79	2456
1973.11	2464
1971.43	2439.5
1969.75	2396
1968.07	2373.5
1966.38	2412.5
1964.7	2407
1963.02	2368.5
1961.34	2328
1959.66	2354
1957.97	2319.5
1956.29	2316
1954.6	2307.5
1952.92	2366.5
1951.23	2338.5
1949.55	2309
1947.86	2235
1946.18	2273.5
1944.49	2270.5
1942.8	2265
1941.11	2213
1939.43	2290
1937.74	2259.5
1936.05	2232
1934.36	2203
1932.67	2173
1930.98	2213.5
1929.29	2185
1927.6	2191
1925.91	2163
1924.21	2160
1922.52	2093.5
1920.83	2141
1919.14	2130.5
1917.44	2112.5
1915.75	2070
1914.05	2081
1912.36	2117.5
1910.66	2052
1908.97	2068
1907.27	2084
1905.58	2057
1903.88	2029.5
1902.18	2044.5
1900.48	2033
1898.79	1984
1897.09	1958
1895.39	1975.5
1893.69	1997
1891.99	1959
1890.29	1958.5
1888.59	1944
1886.89	1951
1885.18	1895.5
1883.48	1912
1881.78	1869
1880.08	1911.5
1878.37	1837
1876.67	1873
1874.96	1830
1873.26	1856.5
1871.55	1853.5
1869.85	1806
1868.14	1874.5
1866.44	1850
1864.73	1821
1863.02	1845.5
1861.32	1804.5
1859.61	1774.5
1857.9	1775.5
1856.19	1790.5
1854.48	1753
1852.77	1764
1851.06	1790
1849.35	1794
1847.64	1714.5
1845.93	1662
1844.21	1705.5
1842.5	1686.5
1840.79	1717
1839.08	1694.5
1837.36	1645
1835.65	1715
1833.93	1683.5
1832.22	1694.5
1830.5	1645.5
1828.79	1672.5
1827.07	1649
1825.36	1614
1823.64	1624.5
1821.92	1636.5
1820.2	1595.5
1818.48	1583
1816.77	1605.5
1815.05	1604.5
1813.33	1577.5
1811.61	1580
1809.89	1575.5
1808.16	1574
1806.44	1595
1804.72	1534
1803	1570.5
1801.28	1496
1799.55	1534.5
1797.83	1513
1796.11	1499
1794.38	1506.5
1792.66	1514.5
1790.93	1477
1789.21	1499
1787.48	1488
1785.75	1486
1784.03	1444.5
1782.3	1475
1780.57	1454
1778.84	1448
1777.11	1425
1775.38	1431.5
1773.66	1439.5
1771.93	1418.5
1770.19	1403.5
1768.46	1415
1766.73	1403.5
1765	1447.5
1763.27	1433.5
1761.54	1401
1759.8	1435.5
1758.07	1415
1756.34	1475.5
1754.6	1459
1752.87	1484
1751.13	1410
1749.4	1430.5
1747.66	1462
1745.92	1464.5
1744.19	1489
1742.45	1399
1740.71	1408.5
1738.97	1414
1737.23	1395
1735.49	1369.5
1733.75	1388
1732.01	1393
1730.27	1372
1728.53	1361
1726.79	1305
1725.05	1314.5
1723.31	1302.5
1721.57	1293.5
1719.82	1273
1718.08	1283
1716.34	1307
1714.59	1256
1712.85	1234.5
1711.1	1288
1709.36	1268
1707.61	1272.5
1705.86	1242
1704.12	1202
1702.37	1199
1700.62	1204
1698.87	1226
1697.12	1177
1695.37	1191
1693.62	1215.5
1691.87	1160
1690.12	1165
1688.37	1152
1686.62	1171
1684.87	1145.5
1683.12	1139.5
1681.36	1168.5
1679.61	1164
1677.86	1177.5
1676.1	1164
1674.35	1161.5
1672.59	1172
1670.84	1181
1669.08	1231
1667.33	1195
1665.57	1259
1663.81	1275.5
1662.06	1318
1660.3	1316
1658.54	1364
1656.78	1376.5
1655.02	1321.5
1653.26	1353
1651.5	1244
1649.74	1249
1647.98	1239
1646.22	1176
1644.46	1167.5
1642.7	1138
1640.93	1131.5
1639.17	1120
1637.41	1091
1635.64	1095
1633.88	1068
1632.11	1052.5
1630.35	1072
1628.58	1067.5
1626.81	1067
1625.05	999
1623.28	1024.5
1621.51	975
1619.75	1020
1617.98	1017
1616.21	986
1614.44	967
1612.67	987.5
1610.9	975.5
1609.13	986
1607.36	1002.5
1605.58	974.5
1603.81	959
1602.04	999
1600.27	972
1598.49	951.5
1596.72	981
1594.95	959
1593.17	943
1591.4	930.5
1589.62	942.5
1587.84	951
1586.07	950.5
1584.29	946
1582.51	935
1580.74	943
1578.96	923
1577.18	913
1575.4	927
1573.62	913
1571.84	900
1570.06	893.5
1568.28	891.5
1566.5	908
1564.72	893
1562.93	878
1561.15	885
1559.37	905.5
1557.58	870.5
1555.8	868.5
1554.02	886
1552.23	870
1550.45	891.5
1548.66	864.5
1546.87	854.5
1545.09	859.5
1543.3	834.5
1541.51	858
1539.72	856
1537.94	791.5
1536.15	856
1534.36	837
1532.57	810.5
1530.78	793.5
1528.99	806
1527.2	812
1525.4	801.5
1523.61	805.5
1521.82	787
1520.03	836.5
1518.23	796
1516.44	828
1514.65	807.5
1512.85	818
1511.06	811
1509.26	820
1507.46	794
1505.67	797
1503.87	809.5
1502.07	780
1500.28	808
1498.48	828
1496.68	827
1494.88	810.5
1493.08	784
1491.28	836
1489.48	838
1487.68	821
1485.88	846
1484.08	854
1482.27	827
1480.47	909.5
1478.67	916
1476.86	895.5
1475.06	937
1473.25	953
1471.45	986.5
1469.64	1012
1467.84	1079.5
1466.03	1137
1464.23	1115
1462.42	1178
1460.61	1264
1458.8	1241
1456.99	1279
1455.18	1272
1453.37	1315
1451.56	1363.5
1449.75	1396
1447.94	1417.5
1446.13	1477.5
1444.32	1482
1442.51	1515.5
1440.7	1528.5
1438.88	1478.5
1437.07	1424
1435.26	1343.5
1433.44	1226
1431.63	1155
1429.81	1075
1427.99	968
1426.18	973.5
1424.36	923.5
1422.54	852.5
1420.73	816
1418.91	828
1417.09	795.5
1415.27	795.5
1413.45	792.5
1411.63	758
1409.81	740
1407.99	723
1406.17	732
1404.35	724
1402.53	683
1400.7	667.5
1398.88	685.5
1397.06	684
1395.23	657
1393.41	688
1391.58	673
1389.76	658.5
1387.93	659
1386.11	641.5
1384.28	616
1382.45	650.5
1380.62	660
1378.8	655
1376.97	660
1375.14	652
1373.31	638.5
1371.48	681
1369.65	701
1367.82	658
1365.99	680
1364.16	673
1362.32	638
1360.49	639.5
1358.66	641.5
1356.82	657
1354.99	650
1353.16	661.5
1351.32	634
1349.48	658
1347.65	657
1345.81	666
1343.98	650
1342.14	636
1340.3	644
1338.46	659
1336.62	659
1334.79	652.5
1332.95	652
1331.11	693.5
1329.27	680
1327.42	733
1325.58	749.5
1323.74	786.5
1321.9	742.5
1320.06	836.5
1318.21	840
1316.37	856
1314.53	907
1312.68	959
1310.84	955.5
1308.99	1016.5
1307.15	1058.5
1305.3	1112
1303.45	1121
1301.61	1118.5
1299.76	1100
1297.91	1090
1296.06	1038
1294.21	935
1292.36	909
1290.51	826.5
1288.66	858.5
1286.81	814.5
1284.96	758
1283.11	792.5
1281.26	778
1279.4	761
1277.55	812
1275.7	723
1273.84	747.5
1271.99	734
1270.13	783
1268.28	739
1266.42	723
1264.56	776.5
1262.71	725
1260.85	756.5
1258.99	750
1257.13	698.5
1255.27	686
1253.41	682.5
1251.56	649
1249.7	659
1247.83	648
1245.97	625.5
1244.11	623
1242.25	586.5
1240.39	580
1238.52	602
1236.66	559
1234.8	564.5
1232.93	550.5
1231.07	545.5
1229.2	512
1227.34	527
1225.47	548
1223.6	521.5
1221.74	508
1219.87	529.5
1218	509
1216.13	476.5
1214.26	502
1212.39	508
1210.53	476
1208.65	460
1206.78	477.5
1204.91	489.5
1203.04	495
1201.17	496
1199.3	482
1197.42	489
1195.55	497
1193.68	461
1191.8	479.5
1189.93	451
1188.05	463
1186.17	459
1184.3	499
1182.42	482
1180.54	461.5
1178.67	477
1176.79	474.5
1174.91	484
1173.03	478.5
1171.15	460
1169.27	458
1167.39	470
1165.51	466
1163.63	466.5
1161.75	484.5
1159.86	496.5
1157.98	447
1156.1	491
1154.21	474.5
1152.33	457
1150.44	489
1148.56	474
1146.67	438
1144.79	483
1142.9	482
1141.01	489.5
1139.12	519
1137.24	504
1135.35	517
1133.46	553
1131.57	578
1129.68	596.5
1127.79	600
1125.9	633.5
1124.01	611
1122.12	603
1120.22	561
1118.33	564
1116.44	571
1114.54	541
1112.65	558
1110.75	555.5
1108.86	553.5
1106.96	574
1105.07	572
1103.17	611.5
1101.27	616
1099.38	656
1097.48	661
1095.58	690
1093.68	699
1091.78	738.5
1089.88	766.5
1087.98	731
1086.08	769
1084.18	786
1082.28	789
1080.38	775.5
1078.47	791
1076.57	771
1074.67	751
1072.76	738
1070.86	723
1068.95	753
1067.05	739
1065.14	763
1063.24	765.5
1061.33	734.5
1059.42	711
1057.51	629
1055.6	652
1053.7	613.5
1051.79	599
1049.88	557
1047.97	575.5
1046.06	603.5
1044.14	559.5
1042.23	543.5
1040.32	586
1038.41	540
1036.5	569.5
1034.58	557
1032.67	546
1030.75	570.5
1028.84	571.5
1026.92	575.5
1025.01	515
1023.09	547
1021.17	537.5
1019.26	540.5
1017.34	549
1015.42	535.5
1013.5	535
1011.58	529
1009.66	506.5
1007.74	535
1005.82	530
1003.9	527
1001.98	530.5
1000.06	572.5
998.134	542.5
996.212	525.5
994.288	552
992.364	560
990.44	569.5
988.515	600
986.589	612
984.663	632.5
982.737	630
980.81	635
978.883	649
976.955	655
975.027	691
973.098	679
971.169	683.5
969.239	662
967.308	704
965.378	699.5
963.447	725.5
961.516	711.5
959.583	738
957.65	718
955.718	721.5
953.784	706
951.85	729
949.916	746
947.981	780.5
946.045	711
944.109	779.5
942.173	805.5
940.236	788
938.298	801.5
936.36	770.5
934.422	755
932.484	721.5
930.544	697
928.604	656
926.664	622
924.724	613
922.782	617
920.84	589
918.898	612.5
916.955	579
915.012	589
913.068	559
911.124	570.5
909.18	609
907.235	583
905.289	563.5
903.343	582
901.397	606
899.45	581
897.502	602
895.554	662
893.605	636
891.657	663
889.707	630
887.758	690.5
885.807	664.5
883.856	647
881.905	648
879.953	676.5
878.001	629.5
876.048	685.5
874.094	686.5
872.14	674.5
870.186	679
868.232	686.5
866.276	670
864.321	634
862.365	650.5
860.408	677
858.451	591
856.493	632.5
854.535	619
852.576	644.5
850.617	603
848.658	651
846.698	665
844.737	637.5
842.776	622
840.814	595
838.852	601
836.89	588
834.927	554.5
832.963	560.5
830.999	519
829.035	563
827.07	534
825.105	488
823.139	514
821.172	527.5
819.206	473
817.238	464.5
815.27	486.5
813.301	461
811.333	467
809.363	438.5
807.394	424
805.424	427
803.453	412
801.482	418
799.509	393.5
797.538	378
795.565	385
793.592	346.5
791.618	383.5
789.643	358
787.669	383
785.693	395
783.718	367
781.742	385
779.765	369
777.788	317
775.811	382
773.832	373.5
771.853	334
769.875	368
767.895	359.5
765.915	347
763.934	332.5
761.953	361
759.972	357
757.99	346.5
756.007	361
754.024	326
752.041	369.5
750.056	321
748.072	359
746.087	371.5
744.102	381.5
742.116	352
740.13	355
738.143	368
736.155	336
734.167	344
732.179	362
730.19	311.5
728.2	325
726.21	366
724.22	334
722.229	359
720.237	364.5
718.246	381.5
716.253	299
714.26	345
712.267	316
710.273	339
708.279	330.5
706.284	335.5
704.289	311
702.293	314.5
700.296	302.5
698.3	319
696.303	333.5
694.305	298.5
692.307	316
690.307	314
688.308	331
686.309	301
684.308	338
682.308	321
680.306	322.5
678.304	330
676.302	291
674.3	347.5
672.296	342
670.293	286
668.289	348
666.284	319
664.278	350
662.273	326
660.266	327
658.26	330
656.252	335
654.244	355.5
652.237	324
650.227	343
648.218	353
646.209	343.5
644.198	326.5
642.188	353.5
640.177	336.5
638.165	338
636.153	358
634.14	364
632.128	329
630.113	374
628.099	361.5
626.085	376.5
624.07	396.5
622.054	363
620.038	397
618.021	373
616.004	370
613.986	388
611.968	382
609.949	411
607.93	354
605.911	371
603.891	382.5
601.87	346.5
599.848	374
597.827	367
595.805	404
593.782	394.5
591.759	344
589.735	358
587.711	374
585.687	357.5
583.661	383
581.636	346
579.609	382.5
577.583	348.5
575.555	340.5
573.527	374.5
571.5	335
569.471	365
567.441	351
565.412	378
563.382	372
561.351	386
559.32	391
557.289	402
555.257	379
553.223	424
551.19	416
549.157	443
547.122	475
545.088	521.5
543.053	532
541.017	536
538.981	658.5
536.943	740.5
534.907	945
532.869	1181
530.831	1640
528.792	2523
526.752	3898.5
524.713	5961.5
522.673	7596.5
520.632	7803
518.591	6425
516.549	4693
514.507	3221.5
512.464	2069.5
510.42	1418.5
508.377	997.5
506.332	773.5
504.288	673.5
502.242	623.5
500.196	567.5
498.15	539
496.104	517
494.056	483
492.008	493.5
489.96	514.5
487.911	487.5
485.862	485
483.812	476
481.761	477.5
479.71	470
477.659	474.5
475.607	404.5
473.555	450
471.502	449
469.448	437.5
467.395	422
465.34	449.5
463.285	447
461.23	405
459.174	465
457.118	412
455.061	458
453.003	441
450.945	459.5
448.887	454.5
446.828	448
444.768	457.5
442.708	473
440.647	494.5
438.587	493
436.525	494
434.463	474
432.4	483.5
430.337	488
428.274	498.5
426.21	496
424.145	493
422.079	504
420.014	504
417.948	491.5
415.882	534.5
413.814	490.5
411.746	516
409.679	494
407.609	503
405.54	517
403.47	552.5
401.401	526
399.329	547.5
397.258	514
395.187	520
393.114	561
391.041	535
388.968	526
386.895	519
384.82	544
382.745	531.5
380.67	558.5
378.594	554
376.517	548.5
374.44	546
372.363	569
370.286	548.5
368.207	551
366.128	556
364.049	572.5
361.969	560
359.888	601
357.807	582.5
355.725	579.5
353.643	590.5
351.561	582.5
349.477	600
347.394	567
345.31	626.5
343.226	641.5
341.141	606
339.055	617.5
336.968	643
334.882	654.5
332.795	667
330.707	684
328.618	679.5
326.53	694.5
324.44	709
322.351	682
320.26	732
318.17	750
316.078	799.5
313.987	863.5
311.895	860
309.802	868.5
307.708	918
305.614	976
303.52	943.5
301.425	962.5
299.329	918
297.233	895.5
295.137	859
293.039	826
290.942	857.5
288.844	811.5
286.745	832.5
284.647	803
282.546	803
280.446	789
278.346	801
276.245	813
274.143	811
272.041	817
269.939	856.5
267.835	842
265.731	837
263.627	839
261.522	868
259.417	841
257.311	879
255.204	861.5
253.098	870
250.99	865
248.882	922.5
246.774	905
244.664	889
242.555	940.5
240.445	933.5
238.334	942.5
236.223	981.5
234.112	957
232	994
229.888	1016.5
227.775	1004
225.661	1006
223.546	1026
221.431	983
219.316	1032
217.201	1044
215.084	1036
212.967	1056
210.85	1034
208.732	1089.5
206.614	1090
204.495	1021
202.375	1045
200.256	1020
198.135	1060
196.014	1007
193.893	1062.5
191.771	1048.5
189.648	1095
187.525	1069
185.401	1106.5
183.277	1077
181.152	1076.5
179.027	1112.5
176.901	1088
174.775	1112.5
172.648	1141
170.521	1152
168.393	1204.5
166.265	1160.5
164.136	1194
162.007	1224
159.876	1220
157.746	1221
155.615	1234
153.483	1348
151.351	1314
149.219	1369
147.086	1431
144.952	1450.5
142.818	1443
140.684	1494
138.548	1550
136.413	1595.5
134.276	1632
132.139	1695.5
130.002	1671
127.864	1767
125.725	1837
123.587	1848
121.447	1929
119.307	2037
117.166	2122
115.026	2137
112.885	2242
110.743	2287
108.6	2364
106.456	2384
104.313	2414
102.169	2437
100.023	2338.5
97.8789	2236
95.7328	2058.5
93.5869	1809.5
91.4392	1548
89.2919	1258
87.1447	1046
84.9959	797.5
