3528.51	489.5
3527.23	503
3525.95	540
3524.67	538
3523.39	557
3522.1	551
3520.82	567
3519.54	555
3518.26	573
3516.97	568.5
3515.69	581
3514.4	558
3513.12	556.5
3511.84	549.5
3510.55	554.5
3509.26	583
3507.98	570.5
3506.69	594.5
3505.41	592
3504.12	592.5
3502.83	612.5
3501.54	615
3500.26	637.5
3498.97	631
3497.68	608.5
3496.39	627
3495.1	632
3493.81	636.5
3492.52	674
3491.23	666
3489.94	696
3488.65	700
3487.36	703.5
3486.07	709
3484.78	733.5
3483.49	723.5
3482.19	717
3480.9	722.5
3479.61	757.5
3478.31	766.5
3477.02	779.5
3475.73	785.5
3474.43	797
3473.14	792
3471.84	780
3470.54	814
3469.25	809.5
3467.95	804
3466.66	825
3465.36	814.5
3464.06	827.5
3462.76	811.5
3461.46	820
3460.17	847
3458.87	856
3457.57	846
3456.27	844.5
3454.97	862.5
3453.67	853
3452.37	877.5
3451.07	894
3449.77	881
3448.47	919
3447.16	920
3445.86	962
3444.56	902
3443.26	968.5
3441.95	982.5
3440.65	999.5
3439.35	1007
3438.04	1010.5
3436.74	1034
3435.43	1056.5
3434.13	1089
3432.82	1110.5
3431.52	1093.5
3430.21	1152
3428.9	1160.5
3427.6	1178
3426.29	1171
3424.98	1197
3423.67	1229
3422.36	1235.5
3421.06	1237
3419.75	1281.5
3418.44	1274
3417.13	1294
3415.82	1334
3414.51	1333.5
3413.2	1362
3411.88	1350.5
3410.57	1370.5
3409.26	1369
3407.95	1352.5
3406.64	1370
3405.32	1411.5
3404.01	1409
3402.7	1437.5
3401.38	1445.5
3400.07	1460
3398.75	1485.5
3397.44	1460
3396.12	1507
3394.81	1460.5
3393.49	1484
3392.18	1512.5
3390.86	1542
3389.54	1540
3388.23	1559
3386.91	1578
3385.59	1601.5
3384.27	1548.5
3382.95	1601.5
3381.63	1618
3380.31	1612
3378.99	1631.5
3377.67	1647
3376.35	1660.5
3375.03	1682
3373.71	1685.5
3372.39	1723
3371.07	1764.5
3369.75	1766.5
3368.42	1724
3367.1	1782.5
3365.78	1789.5
3364.45	1783.5
3363.13	1815.5
3361.81	1797.5
3360.48	1820
3359.16	1826
3357.83	1862
3356.51	1862
3355.18	1873
3353.85	1863.5
3352.53	1815.5
3351.2	1857
3349.87	1886
3348.54	1895.5
3347.22	1865
3345.89	1887
3344.56	1927
3343.23	1917
3341.9	1953
3340.57	1967.5
3339.24	1952.5
3337.91	1948
3336.58	1989
3335.25	1941.5
3333.92	1992.5
3332.58	1971
3331.25	1982
3329.92	1972.5
3328.59	2018.5
3327.25	2011
3325.92	2010
3324.58	2026.5
3323.25	2041.5
3321.92	2078
3320.58	2084.5
3319.25	2073
3317.91	2079
3316.57	2070.5
3315.24	2133
3313.9	2146.5
3312.56	2140.5
3311.23	2178
3309.89	2135.5
3308.55	2188.5
3307.21	2181.5
3305.87	2175.5
3304.53	2212.5
3303.19	2190
3301.85	2226
3300.51	2225.5
3299.17	2214.5
3297.83	2204.5
3296.49	2240.5
3295.15	2246.5
3293.81	2267.5
3292.46	2274
3291.12	2276.5
3289.78	2299
3288.43	2252
3287.09	2313
3285.75	2290.5
3284.4	2316
3283.06	2296.5
3281.71	2322
3280.37	2323.5
3279.02	2336.5
3277.67	2357.5
3276.33	2402
3274.98	2377.5
3273.63	2432.5
3272.28	2411
3270.94	2462.5
3269.59	2442
3268.24	2483.5
3266.89	2511.5
3265.54	2510.5
3264.19	2553
3262.84	2564
3261.49	2632
3260.14	2635
3258.79	2713
3257.44	2741.5
3256.08	2780
3254.73	2886
3253.38	2894.5
3252.03	2972.5
3250.67	3045.5
3249.32	3139
3247.96	3186
3246.61	3301.5
3245.26	3364.5
3243.9	3478.5
3242.54	3551
3241.19	3595
3239.83	3683
3238.48	3816
3237.12	3901.5
3235.76	3978
3234.41	4151.5
3233.05	4211.5
3231.69	4306.5
3230.33	4394
3228.97	4466
3227.61	4523
3226.25	4633
3224.89	4675
3223.53	4729
3222.17	4843
3220.81	4921.5
3219.45	4951.5
3218.09	5051
3216.72	5096.5
3215.36	5162
3214	5194
3212.63	5197
3211.27	5271
3209.91	5297.5
3208.54	5300.5
3207.18	5380
3205.81	5413
3204.45	5498.5
3203.08	5480.5
3201.71	5518
3200.35	5533
3198.98	5570.5
3197.61	5615.5
3196.25	5617
3194.88	5625
3193.51	5729.5
3192.14	5699
3190.77	5733
3189.4	5700.5
3188.03	5728
3186.66	5784.5
3185.29	5814.5
3183.92	5890
3182.55	5889.5
3181.18	5973.5
3179.81	5975.5
3178.44	5946
3177.06	6047.5
3175.69	6104.5
3174.32	6098
3172.94	6155.5
3171.57	6184
3170.2	6208.5
3168.82	6325.5
3167.45	6357
3166.07	6370.5
3164.69	6447
3163.32	6446
3161.94	6446.5
3160.56	6532.5
3159.19	6590
3157.81	6658.5
3156.43	6690.5
3155.05	6755
3153.67	6873.5
3152.3	6914
3150.92	6988
3149.54	6997
3148.16	7006.5
3146.78	7019
3145.4	7121
3144.01	7121.5
3142.63	7208
3141.25	7296
3139.87	7311.5
3138.49	7354.5
3137.1	7376.5
3135.72	7466.5
3134.34	7444
3132.95	7527
3131.57	7617.5
3130.18	7614.5
3128.8	7633
3127.41	7750
3126.03	7781
3124.64	7835
3123.25	7877.5
3121.87	7945
3120.48	8003
3119.09	8023
3117.7	8038.5
3116.32	8045
3114.93	8074
3113.54	8128.5
3112.15	8139.5
3110.76	8224.5
3109.37	8182.5
3107.98	8317.5
3106.59	8362.5
3105.2	8355.5
3103.8	8401.5
3102.41	8452
3101.02	8532.5
3099.63	8470.5
3098.23	8517.5
3096.84	8640.5
3095.45	8617.5
3094.05	8675.5
3092.66	8754.5
3091.26	8708.5
3089.87	8708
3088.47	8847.5
3087.08	8852
3085.68	8807.5
3084.28	8829.5
3082.89	8840.5
3081.49	8886
3080.09	8943
3078.69	8958.5
3077.3	8981.5
3075.9	8952.5
3074.5	9012
3073.1	9048.5
3071.7	9045
3070.3	9080.5
3068.9	9127.5
3067.5	9068.5
3066.09	9029.5
3064.69	9125
3063.29	9222
3061.89	9239
3060.48	9261.5
3059.08	9333
3057.68	9324.5
3056.27	9363
3054.87	9421.5
3053.46	9394.5
3052.06	9430
3050.65	9488.5
3049.25	9511
3047.84	9584
3046.44	9592.5
3045.03	9633
3043.62	9556
3042.21	9589
3040.81	9706.5
3039.4	9710.5
3037.99	9693.5
3036.58	9709.5
3035.17	9765.5
3033.76	9725
3032.35	9796.5
3030.94	9872.5
3029.53	9879.5
3028.12	9831
3026.71	9848
3025.29	9929
3023.88	9911
3022.47	9976.5
3021.06	9957
3019.64	9929
3018.23	9987
3016.82	9918.5
3015.4	10030
3013.99	10065
3012.57	10069.5
3011.15	10069.5
3009.74	10094.5
3008.32	10147.5
3006.91	10114
3005.49	10163.5
3004.07	10219
3002.65	10255
3001.24	10295
2999.82	10280.5
2998.4	10400.5
2996.98	10385.5
2995.56	10440
2994.14	10562.5
2992.72	10486.5
2991.3	10563
2989.88	10613.5
2988.46	10661.5
2987.03	10689
2985.61	10704.5
2984.19	10799
2982.77	10870
2981.34	10916
2979.92	10955.5
2978.49	11021
2977.07	11130.5
2975.65	11055.5
2974.22	11166.5
2972.79	11197
2971.37	11215.5
2969.94	11188.5
2968.52	11355.5
2967.09	11393
2965.66	11459
2964.23	11512.5
2962.81	11503.5
2961.38	11513
2959.95	11557
2958.52	11619.5
2957.09	11675.5
2955.66	11476
2954.23	11704
2952.8	11643
2951.37	11673
2949.94	11782
2948.5	11785.5
2947.07	11840.5
2945.64	11803
2944.21	11788
2942.77	11846.5
2941.34	11984.5
2939.91	11954.5
2938.47	12001
2937.04	12045
2935.6	12073
2934.17	12093.5
2932.73	12128
2931.29	12242.5
2929.86	12227.5
2928.42	12308.5
2926.98	12328
2925.55	12374.5
2924.11	12398
2922.67	12426.5
2921.23	12430.5
2919.79	12453.5
2918.35	12508.5
2916.91	12577.5
2915.47	12594.5
2914.03	12613
2912.59	12591
2911.15	12620
2909.71	12636
2908.26	12487
2906.82	12650
2905.38	12627.5
2903.94	12628.5
2902.49	12692.5
2901.05	12738
2899.6	12714.5
2898.16	12808
2896.71	12736
2895.27	12904
2893.82	12880.5
2892.38	12891.5
2890.93	13023
2889.48	12844
2888.03	12882
2886.59	12863
2885.14	12930.5
2883.69	12977.5
2882.24	12919
2880.79	12895
2879.34	12968
2877.89	12988
2876.44	12946
2874.99	13001
2873.54	12978.5
2872.09	12989.5
2870.64	12924
2869.18	12932
2867.73	12996
2866.28	13073.5
2864.83	13090.5
2863.37	13052.5
2861.92	13079.5
2860.46	13232
2859.01	13227
2857.55	13152.5
2856.1	13161.5
2854.64	13200.5
2853.19	13234.5
2851.73	13135.5
2850.27	13181
2848.81	13170.5
2847.36	13177
2845.9	13118
2844.44	13223.5
2842.98	13112
2841.52	12987.5
2840.06	12970.5
2838.6	12956
2837.14	12983.5
2835.68	12822.5
2834.22	12847.5
2832.76	12882.5
2831.3	12857.5
2829.83	12784.5
2828.37	12819.5
2826.91	12729.5
2825.44	12714.5
2823.98	12726
2822.52	12666
2821.05	12687
2819.59	12583.5
2818.12	12583
2816.66	12472.5
2815.19	12521
2813.72	12467.5
2812.26	12500
2810.79	12462
2809.32	12400
2807.85	12423.5
2806.38	12316
2804.92	12303
2803.45	12391
2801.98	12245.5
2800.51	12360.5
2799.04	12285.5
2797.57	12357.5
2796.1	12331
2794.62	12314
2793.15	12328
2791.68	12267.5
2790.21	12225
2788.73	12279
2787.26	12226.5
2785.79	12313
2784.31	12274.5
2782.84	12321.5
2781.36	12366.5
2779.89	12476.5
2778.41	12435
2776.94	12419.5
2775.46	12437.5
2773.99	12415.5
2772.51	12429
2771.03	12401
2769.55	12525.5
2768.07	12516
2766.6	12530.5
2765.12	12515
2763.64	12510.5
2762.16	12553.5
2760.68	12562
2759.2	12533.5
2757.72	12556.5
2756.24	12483
2754.75	12445
2753.27	12540
2751.79	12519.5
2750.31	12632
2748.82	12470.5
2747.34	12531.5
2745.86	12414
2744.37	12454.5
2742.89	12394.5
2741.4	12367.5
2739.92	12337.5
2738.43	12372.5
2736.94	12427
2735.46	12400.5
2733.97	12346.5
2732.48	12336
2731	12441
2729.51	12302.5
2728.02	12478.5
2726.53	12334.5
2725.04	12287.5
2723.55	12290
2722.06	12251.5
2720.57	12319
2719.08	12295.5
2717.59	12328.5
2716.1	12283
2714.61	12252
2713.11	12410.5
2711.62	12305.5
2710.13	12376
2708.64	12324
2707.14	12341.5
2705.65	12362
2704.15	12323.5
2702.66	12283.5
2701.16	12248
2699.67	12259
2698.17	12215
2696.67	12153.5
2695.18	12246
2693.68	12226
2692.18	12178
2690.69	12144.5
2689.19	12177.5
2687.69	12175.5
2686.19	12054
2684.69	12039
2683.19	12063
2681.69	12034
2680.19	11989
2678.69	11989.5
2677.19	11968.5
2675.68	11966
2674.18	11906
2672.68	11999.5
2671.18	11973.5
2669.67	11933.5
2668.17	11978.5
2666.66	11898
2665.16	11888.5
2663.66	11933
2662.15	11836.5
2660.64	11848
2659.14	11954.5
2657.63	11840
2656.13	11924.5
2654.62	11786.5
2653.11	11757
2651.6	11678
2650.09	11768.5
2648.58	11707.5
2647.08	11681.5
2645.57	11689
2644.06	11701
2642.55	11665.5
2641.04	11527
2639.52	11629
2638.01	11574
2636.5	11541
2634.99	11500.5
2633.48	11352
2631.96	11452
2630.45	11388.5
2628.94	11363.5
2627.42	11413.5
2625.91	11290
2624.39	11310.5
2622.88	11343.5
2621.36	11294.5
2619.85	11263
2618.33	11393
2616.81	11322
2615.3	11309.5
2613.78	11259
2612.26	11311.5
2610.74	11244
2609.22	11194.5
2607.7	11346.5
2606.18	11274.5
2604.66	11166.5
2603.14	11173.5
2601.62	11148.5
2600.1	11008.5
2598.58	11009.5
2597.06	10945.5
2595.54	10881
2594.01	10905
2592.49	10887
2590.97	10823.5
2589.44	10819
2587.92	10790
2586.39	10783.5
2584.87	10801.5
2583.34	10736.5
2581.82	10765
2580.29	10784.5
2578.76	10647
2577.24	10691.5
2575.71	10759.5
2574.18	10668
2572.65	10676
2571.13	10610
2569.6	10621
2568.07	10549
2566.54	10619.5
2565.01	10564.5
2563.48	10489.5
2561.95	10449
2560.42	10481.5
2558.88	10493.5
2557.35	10455
2555.82	10420.5
2554.29	10445
2552.75	10370
2551.22	10386
2549.69	10340
2548.15	10317
2546.62	10281
2545.08	10304.5
2543.55	10285.5
2542.01	10218
2540.47	10156.5
2538.94	10191.5
2537.4	10038.5
2535.86	10124.5
2534.33	10099
2532.79	10018
2531.25	10082
2529.71	9968
2528.17	9866.5
2526.63	9913.5
2525.09	9812.5
2523.55	9740
2522.01	9803
2520.47	9813
2518.92	9745.5
2517.38	9693
2515.84	9715
2514.3	9714
2512.75	9720
2511.21	9669
2509.67	9533.5
2508.12	9556.5
2506.58	9511.5
2505.03	9483.5
2503.49	9478.5
2501.94	9503
2500.39	9536
2498.85	9488
2497.3	9493.5
2495.75	9383
2494.2	9380
2492.65	9296
2491.11	9288.5
2489.56	9223
2488.01	9271
2486.46	9197.5
2484.91	9149.5
2483.36	9130
2481.8	9135.5
2480.25	8989.5
2478.7	9057
2477.15	8999.5
2475.6	8979
2474.04	8902.5
2472.49	8955
2470.93	8821.5
2469.38	8791
2467.83	8786
2466.27	8769
2464.71	8705
2463.16	8794
2461.6	8708.5
2460.05	8604.5
2458.49	8629
2456.93	8537
2455.37	8553
2453.81	8536
2452.26	8445
2450.7	8464
2449.14	8413
2447.58	8428
2446.02	8394
2444.46	8343
2442.9	8309
2441.33	8241
2439.77	8278
2438.21	8194.5
2436.65	8185
2435.08	8202.5
2433.52	8184
2431.96	8124
2430.39	8133.5
2428.83	8119
2427.26	8105
2425.7	8018
2424.13	8036.5
2422.56	8020.5
2421	8021
2419.43	7985
2417.86	7993.5
2416.3	7944
2414.73	7852
2413.16	7902.5
2411.59	7933
2410.02	7843
2408.45	7872.5
2406.88	7843
2405.31	7853
2403.74	7796
2402.17	7837
2400.6	7757.5
2399.02	7794
2397.45	7656
2395.88	7750.5
2394.3	7722
2392.73	7707
2391.16	7725
2389.58	7687.5
2388.01	7685
2386.43	7614.5
2384.86	7694
2383.28	7656.5
2381.7	7612.5
2380.13	7584.5
2378.55	7655
2376.97	7555.5
2375.39	7534
2373.81	7468
2372.23	7475.5
2370.65	7502
2369.07	7482
2367.49	7471
2365.91	7428.5
2364.33	7437
2362.75	7401
2361.17	7325.5
2359.59	7318.5
2358.01	7322.5
2356.42	7289
2354.84	7281
2353.25	7268.5
2351.67	7289.5
2350.09	7238.5
2348.5	7198.5
2346.92	7216.5
2345.33	7144.5
2343.74	7220
2342.16	7194.5
2340.57	7230
2338.98	7178
2337.39	7149
2335.81	7157
2334.22	7112
2332.63	7134
2331.04	7039.5
2329.45	7049.5
2327.86	6991.5
2326.27	7021
2324.68	6987.5
2323.09	6978
2321.49	6954.5
2319.9	6986
2318.31	6963
2316.72	6931
2315.12	6944
2313.53	6872.5
2311.93	6767.5
2310.34	6798
2308.74	6775.5
2307.15	6807.5
2305.55	6738
2303.96	6787
2302.36	6666.5
2300.76	6671.5
2299.17	6661
2297.57	6622
2295.97	6604.5
2294.37	6578.5
2292.77	6595
2291.17	6493
2289.57	6544
2287.97	6486.5
2286.37	6564.5
2284.77	6535.5
2283.17	6492
2281.57	6461
2279.96	6477.5
2278.36	6390
2276.76	6422.5
2275.15	6345.5
2273.55	6324
2271.95	6364
2270.34	6290
2268.74	6261.5
2267.13	6240
2265.52	6240.5
2263.92	6176
2262.31	6232
2260.7	6160.5
2259.1	6178
2257.49	6096.5
2255.88	6088.5
2254.27	6093
2252.66	6072
2251.05	6046.5
2249.44	6028.5
2247.83	6058.5
2246.22	5978
2244.61	6025
2243	5999
2241.39	5966.5
2239.77	5874
2238.16	5935
2236.55	5886
2234.93	5820.5
2233.32	5854
2231.7	5871
2230.09	5840
2228.47	5765.5
2226.86	5772
2225.24	5708.5
2223.63	5691.5
2222.01	5694
2220.39	5652.5
2218.77	5623.5
2217.16	5581
2215.54	5582.5
2213.92	5609
2212.3	5518
2210.68	5532.5
2209.06	5537.5
2207.44	5466
2205.82	5462.5
2204.19	5386
2202.57	5413
2200.95	5404.5
2199.33	5406
2197.7	5373
2196.08	5358
2194.46	5388.5
2192.83	5389.5
2191.21	5384
2189.58	5357.5
2187.96	5287.5
2186.33	5243
2184.7	5292
2183.08	5263.5
2181.45	5230.5
2179.82	5249.5
2178.19	5230
2176.57	5233
2174.94	5187.5
2173.31	5149
2171.68	5164
2170.05	5120.5
2168.42	5125.5
2166.79	5119
2165.16	5068
2163.52	5076
2161.89	5091
2160.26	5019.5
2158.63	5056.5
2156.99	5018
2155.36	4994
2153.73	4969
2152.09	4912.5
2150.46	4935.5
2148.82	4981
2147.18	4887.5
2145.55	4874
2143.91	4836.5
2142.27	4786.5
2140.64	4821.5
2139	4738
2137.36	4768.5
2135.72	4744.5
2134.08	4654
2132.44	4614
2130.8	4660.5
2129.16	4625
2127.52	4624
2125.88	4514
2124.24	4513
2122.6	4508.5
2120.95	4471
2119.31	4546
2117.67	4452.5
2116.02	4442.5
2114.38	4440.5
2112.74	4421
2111.09	4389.5
2109.45	4405
2107.8	4311.5
2106.15	4344
2104.51	4326.5
2102.86	4309
2101.21	4332
2099.56	4306.5
2097.92	4338
2096.27	4309
2094.62	4281.5
2092.97	4272
2091.32	4237.5
2089.67	4280
2088.02	4261.5
2086.37	4202
2084.72	4193
2083.06	4199.5
2081.41	4218
2079.76	4156
2078.1	4195
2076.45	4189
2074.8	4137.5
2073.14	4089
2071.49	4079.5
2069.83	4081
2068.18	4097.5
2066.52	4085.5
2064.86	4142
2063.21	4096
2061.55	4054.5
2059.89	4015.5
2058.23	4041
2056.57	3982.5
2054.92	4010.5
2053.26	4002.5
2051.6	3977
2049.94	3955.5
2048.27	3922
2046.61	3946.5
2044.95	3879.5
2043.29	3882
2041.63	3891
2039.97	3832
2038.3	3856
2036.64	3836.5
2034.97	3843.5
2033.31	3760
2031.64	3762.5
2029.98	3743.5
2028.31	3748
2026.65	3680.5
2024.98	3649
2023.31	3698
2021.65	3623.5
2019.98	3666
2018.31	3619
2016.64	3646.5
2014.97	3582.5
2013.3	3602.5
2011.63	3590
2009.96	3580
2008.29	3540
2006.62	3534.5
2004.95	3542
2003.28	3499
2001.6	3538.5
1999.93	3518
1998.26	3483
1996.58	3447
1994.91	3404.5
1993.24	3446.5
1991.56	3458.5
1989.89	3397.5
1988.21	3413
1986.53	3357.5
1984.86	3365
1983.18	3317.5
1981.5	3363.5
1979.82	3319.5
1978.15	3311.5
1976.47	3288.5
1974.79	3302.5
1973.11	3257.5
1971.43	3251.5
1969.75	3247
1968.07	3231
1966.38	3210
1964.7	3255
1963.02	3203
1961.34	3200
1959.66	3144
1957.97	3135.5
1956.29	3134
1954.6	3119.5
1952.92	3097
1951.23	3068
1949.55	3110
1947.86	3073.5
1946.18	3041.5
1944.49	3086
1942.8	3050.5
1941.11	2992
1939.43	2992
1937.74	2965.5
1936.05	2979.5
1934.36	2947
1932.67	2953
1930.98	2973.5
1929.29	2934.5
1927.6	2891.5
1925.91	2903
1924.21	2913.5
1922.52	2873
1920.83	2842.5
1919.14	2854.5
1917.44	2851.5
1915.75	2798.5
1914.05	2835
1912.36	2823.5
1910.66	2834.5
1908.97	2827
1907.27	2778.5
1905.58	2781
1903.88	2746.5
1902.18	2744.5
1900.48	2735.5
1898.79	2733.5
1897.09	2657.5
1895.39	2675.5
1893.69	2637.5
1891.99	2658
1890.29	2627
1888.59	2634
1886.89	2642.5
1885.18	2577.5
1883.48	2560
1881.78	2529.5
1880.08	2543.5
1878.37	2510
1876.67	2484
1874.96	2472.5
1873.26	2473
1871.55	2468
1869.85	2469.5
1868.14	2425
1866.44	2480
1864.73	2444
1863.02	2427.5
1861.32	2443.5
1859.61	2370.5
1857.9	2401
1856.19	2375.5
1854.48	2358
1852.77	2371
1851.06	2337
1849.35	2312
1847.64	2364.5
1845.93	2354.5
1844.21	2344
1842.5	2298.5
1840.79	2298
1839.08	2325.5
1837.36	2295
1835.65	2279
1833.93	2247.5
1832.22	2255
1830.5	2245
1828.79	2226
1827.07	2234
1825.36	2256
1823.64	2206
1821.92	2183
1820.2	2171
1818.48	2142.5
1816.77	2168
1815.05	2148
1813.33	2116
1811.61	2142
1809.89	2102.5
1808.16	2111
1806.44	2130.5
1804.72	2108
1803	2076.5
1801.28	2062
1799.55	2049
1797.83	2058
1796.11	2031.5
1794.38	2051
1792.66	2017
1790.93	2021.5
1789.21	2045.5
1787.48	1999
1785.75	2020
1784.03	2018
1782.3	1967.5
1780.57	1944.5
1778.84	1957
1777.11	1961.5
1775.38	1925
1773.66	1937.5
1771.93	1960.5
1770.19	1934.5
1768.46	1960
1766.73	1926.5
1765	1920
1763.27	1941.5
1761.54	1939.5
1759.8	1950
1758.07	1972
1756.34	1954.5
1754.6	1971
1752.87	1990
1751.13	2015.5
1749.4	2037.5
1747.66	2042.5
1745.92	1996.5
1744.19	2019
1742.45	1981
1740.71	1943.5
1738.97	1948
1737.23	1907
1735.49	1880
1733.75	1890.5
1732.01	1871.5
1730.27	1823
1728.53	1851.5
1726.79	1846
1725.05	1787
1723.31	1812
1721.57	1750.5
1719.82	1765
1718.08	1770.5
1716.34	1749.5
1714.59	1737
1712.85	1716
1711.1	1746
1709.36	1737
1707.61	1720.5
1705.86	1736.5
1704.12	1711
1702.37	1707.5
1700.62	1671.5
1698.87	1640
1697.12	1676
1695.37	1667
1693.62	1640.5
1691.87	1654
1690.12	1606
1688.37	1596
1686.62	1604
1684.87	1619
1683.12	1600
1681.36	1636
1679.61	1617
1677.86	1589.5
1676.1	1643
1674.35	1640
1672.59	1700
1670.84	1682.5
1669.08	1752
1667.33	1803
1665.57	1837
1663.81	1911
1662.06	1980.5
1660.3	2020.5
1658.54	2072
1656.78	2074
1655.02	2027.5
1653.26	2009
1651.5	1910
1649.74	1835
1647.98	1803
1646.22	1757.5
1644.46	1665.5
1642.7	1638
1640.93	1593.5
1639.17	1550
1637.41	1551
1635.64	1477.5
1633.88	1544.5
1632.11	1511
1630.35	1485
1628.58	1461
1626.81	1477
1625.05	1472
1623.28	1472
1621.51	1436
1619.75	1416
1617.98	1404
1616.21	1387
1614.44	1389.5
1612.67	1398
1610.9	1377.5
1609.13	1372
1607.36	1367
1605.58	1390
1603.81	1392.5
1602.04	1355
1600.27	1357.5
1598.49	1351.5
1596.72	1376
1594.95	1364.5
1593.17	1344.5
1591.4	1345.5
1589.62	1381
1587.84	1359
1586.07	1335
1584.29	1354.5
1582.51	1322
1580.74	1317.5
1578.96	1299
1577.18	1300
1575.4	1296.5
1573.62	1291
1571.84	1303.5
1570.06	1271
1568.28	1308
1566.5	1280
1564.72	1283
1562.93	1250.5
1561.15	1268
1559.37	1217.5
1557.58	1255.5
1555.8	1250
1554.02	1260.5
1552.23	1210
1550.45	1224
1548.66	1237
1546.87	1211.5
1545.09	1216.5
1543.3	1199
1541.51	1203
1539.72	1193.5
1537.94	1200
1536.15	1175.5
1534.36	1177.5
1532.57	1163
1530.78	1181.5
1528.99	1151
1527.2	1136
1525.4	1165
1523.61	1139
1521.82	1158
1520.03	1145.5
1518.23	1138
1516.44	1160
1514.65	1185
1512.85	1167
1511.06	1135.5
1509.26	1174
1507.46	1178
1505.67	1182.5
1503.87	1189
1502.07	1164
1500.28	1137
1498.48	1159
1496.68	1156
1494.88	1187.5
1493.08	1179.5
1491.28	1172.5
1489.48	1206
1487.68	1176
1485.88	1254.5
1484.08	1243.5
1482.27	1252.5
1480.47	1257
1478.67	1302
1476.86	1358
1475.06	1378
1473.25	1431
1471.45	1506
1469.64	1562.5
1467.84	1617
1466.03	1699
1464.23	1789
1462.42	1793
1460.61	1917
1458.8	1933
1456.99	1997
1455.18	2020
1453.37	2061
1451.56	2103
1449.75	2161
1447.94	2188
1446.13	2297
1444.32	2311.5
1442.51	2335.5
1440.7	2358
1438.88	2334
1437.07	2225
1435.26	2067
1433.44	1887.5
1431.63	1724
1429.81	1587
1427.99	1522
1426.18	1435
1424.36	1332
1422.54	1324
1420.73	1299.5
1418.91	1267.5
1417.09	1208.5
1415.27	1163.5
1413.45	1133
1411.63	1110
1409.81	1103.5
1407.99	1101.5
1406.17	1069
1404.35	1075.5
1402.53	1070.5
1400.7	1053.5
1398.88	1031
1397.06	1032.5
1395.23	987.5
1393.41	1006.5
1391.58	1002
1389.76	960
1387.93	1002
1386.11	993.5
1384.28	1002.5
1382.45	1026
1380.62	1007.5
1378.8	963
1376.97	995
1375.14	1015.5
1373.31	997
1371.48	1042
1369.65	1028.5
1367.82	1012.5
1365.99	1014
1364.16	998.5
1362.32	1021
1360.49	989.5
1358.66	1002.5
1356.82	1009.5
1354.99	968.5
1353.16	977.5
1351.32	964.5
1349.48	976.5
1347.65	968.5
1345.81	1002
1343.98	971
1342.14	1005
1340.3	999.5
1338.46	1013
1336.62	1001
1334.79	1017
1332.95	1021
1331.11	1040.5
1329.27	1075
1327.42	1111.5
1325.58	1155
1323.74	1179.5
1321.9	1202
1320.06	1225.5
1318.21	1292.5
1316.37	1355.5
1314.53	1408
1312.68	1459.5
1310.84	1543.5
1308.99	1574.5
1307.15	1648.5
1305.3	1700.5
1303.45	1777.5
1301.61	1802
1299.76	1797
1297.91	1750.5
1296.06	1704.5
1294.21	1560
1292.36	1464
1290.51	1382
1288.66	1325
1286.81	1285.5
1284.96	1280.5
1283.11	1258.5
1281.26	1270
1279.4	1279
1277.55	1322
1275.7	1293
1273.84	1304
1271.99	1311
1270.13	1353
1268.28	1325
1266.42	1311.5
1264.56	1295
1262.71	1287.5
1260.85	1260.5
1258.99	1278
1257.13	1251
1255.27	1187.5
1253.41	1166
1251.56	1109
1249.7	1084
1247.83	1052.5
1245.97	1054
1244.11	1010.5
1242.25	1001.5
1240.39	976
1238.52	968
1236.66	941
1234.8	940
1232.93	910
1231.07	911.5
1229.2	888
1227.34	861
1225.47	879.5
1223.6	856.5
1221.74	861
1219.87	858.5
1218	860.5
1216.13	863.5
1214.26	843
1212.39	843.5
1210.53	840.5
1208.65	820
1206.78	810
1204.91	813
1203.04	802.5
1201.17	808
1199.3	817
1197.42	829.5
1195.55	850
1193.68	815
1191.8	812.5
1189.93	796
1188.05	797
1186.17	815
1184.3	783
1182.42	782
1180.54	768.5
1178.67	802
1176.79	813.5
1174.91	797
1173.03	823
1171.15	793
1169.27	820.5
1167.39	790
1165.51	786.5
1163.63	772.5
1161.75	806.5
1159.86	769
1157.98	785
1156.1	800
1154.21	783
1152.33	799.5
1150.44	806.5
1148.56	838.5
1146.67	828
1144.79	824
1142.9	805.5
1141.01	828
1139.12	850.5
1137.24	840.5
1135.35	919
1133.46	923
1131.57	974
1129.68	1033
1127.79	1056.5
1125.9	1043.5
1124.01	1055
1122.12	1000.5
1120.22	1009
1118.33	996.5
1116.44	970.5
1114.54	970.5
1112.65	980
1110.75	976.5
1108.86	1001.5
1106.96	986.5
1105.07	1021.5
1103.17	1082
1101.27	1072
1099.38	1097
1097.48	1125.5
1095.58	1171
1093.68	1196
1091.78	1240.5
1089.88	1280
1087.98	1258.5
1086.08	1288.5
1084.18	1335.5
1082.28	1309
1080.38	1312
1078.47	1312
1076.57	1276.5
1074.67	1262.5
1072.76	1264
1070.86	1289
1068.95	1317.5
1067.05	1322
1065.14	1354.5
1063.24	1340
1061.33	1284
1059.42	1218.5
1057.51	1152.5
1055.6	1079.5
1053.7	1029
1051.79	1025
1049.88	1006
1047.97	992
1046.06	1005.5
1044.14	982.5
1042.23	1018
1040.32	1002
1038.41	1019.5
1036.5	965
1034.58	995.5
1032.67	973.5
1030.75	967.5
1028.84	970
1026.92	949
1025.01	957
1023.09	987.5
1021.17	982.5
1019.26	974.5
1017.34	980
1015.42	955.5
1013.5	941
1011.58	924
1009.66	921
1007.74	905
1005.82	930
1003.9	920.5
1001.98	919.5
1000.06	925.5
998.134	943
996.212	944
994.288	924
992.364	956
990.44	971.5
988.515	955
986.589	972.5
984.663	1032
982.737	1034
980.81	1075
978.883	1093
976.955	1114
975.027	1152.5
973.098	1184.5
971.169	1160.5
969.239	1168
967.308	1163
965.378	1167
963.447	1111
961.516	1120.5
959.583	1135.5
957.65	1136
955.718	1160
953.784	1159.5
951.85	1181
949.916	1162.5
947.981	1206
946.045	1210.5
944.109	1211.5
942.173	1235.5
940.236	1231
938.298	1225
936.36	1176
934.422	1187.5
932.484	1170
930.544	1124
928.604	1097.5
926.664	1097.5
924.724	1066
922.782	1056
920.84	1065.5
918.898	1060.5
916.955	1048
915.012	1064
913.068	1056
911.124	1079.5
909.18	1080.5
907.235	1092
905.289	1078
903.343	1081
901.397	1089.5
899.45	1096
897.502	1094.5
895.554	1151
893.605	1178.5
891.657	1215
889.707	1218.5
887.758	1203
885.807	1205.5
883.856	1177
881.905	1201.5
879.953	1228.5
878.001	1244.5
876.048	1225
874.094	1258.5
872.14	1247
870.186	1251
868.232	1258.5
866.276	1272
864.321	1238
862.365	1220
860.408	1228.5
858.451	1205
856.493	1192.5
854.535	1213
852.576	1202.5
850.617	1200.5
848.658	1210.5
846.698	1204.5
844.737	1220
842.776	1188
840.814	1158.5
838.852	1129
836.89	1120
834.927	1098.5
832.963	1052
830.999	1053
829.035	1017.5
827.07	965
825.105	976.5
823.139	967
821.172	941
819.206	940
817.238	889.5
815.27	901
813.301	885.5
811.333	875
809.363	880.5
807.394	845
805.424	838.5
803.453	813
801.482	815.5
799.509	776.5
797.538	795.5
795.565	765
793.592	764.5
791.618	757
789.643	757.5
787.669	717.5
785.693	749.5
783.718	754
781.742	723
779.765	758
777.788	739
775.811	722
773.832	739
771.853	772.5
769.875	762.5
767.895	751.5
765.915	753.5
763.934	770
761.953	745
759.972	747
757.99	732
756.007	725
754.024	729.5
752.041	724
750.056	744
748.072	729.5
746.087	745
744.102	760
742.116	744
740.13	748.5
738.143	754
736.155	757
734.167	749
732.179	748
730.19	774.5
728.2	773.5
726.21	777.5
724.22	766
722.229	767.5
720.237	758.5
718.246	771
716.253	747.5
714.26	734.5
712.267	754.5
710.273	737.5
708.279	700.5
706.284	736.5
704.289	717.5
702.293	737
700.296	730
698.3	723
696.303	695
694.305	705.5
692.307	692.5
690.307	692.5
688.308	705
686.309	678.5
684.308	707
682.308	716
680.306	732.5
678.304	712
676.302	726
674.3	712.5
672.296	720
670.293	731.5
668.289	699
666.284	714.5
664.278	738
662.273	726.5
660.266	716.5
658.26	737.5
656.252	708
654.244	741
652.237	728
650.227	726
648.218	740
646.209	740
644.198	759.5
642.188	746
640.177	738
638.165	746
636.153	752.5
634.14	764.5
632.128	756.5
630.113	778
628.099	755
626.085	795
624.07	781.5
622.054	810.5
620.038	775.5
618.021	791.5
616.004	803
613.986	790
611.968	815
609.949	822
607.93	787
605.911	808.5
603.891	828
601.87	802
599.848	814.5
597.827	802.5
595.805	810
593.782	820
591.759	819
589.735	810.5
587.711	823.5
585.687	820.5
583.661	794.5
581.636	792.5
579.609	765.5
577.583	783.5
575.555	761
573.527	797.5
571.5	781.5
569.471	787.5
567.441	798.5
565.412	811.5
563.382	794
561.351	804
559.32	830.5
557.289	814.5
555.257	822.5
553.223	846
551.19	864.5
549.157	876.5
547.122	900
545.088	913
543.053	967.5
541.017	1020
538.981	1078
536.943	1182
534.907	1285.5
532.869	1542.5
530.831	1969
528.792	2699.5
526.752	3981
524.713	5908
522.673	7768.5
520.632	8130
518.591	6973
516.549	5176.5
514.507	3526
512.464	2474.5
510.42	1793.5
508.377	1461
506.332	1220
504.288	1133.5
502.242	1073
500.196	1035
498.15	1006.5
496.104	1015.5
494.056	1003.5
492.008	967
489.96	966.5
487.911	946
485.862	940.5
483.812	938
481.761	921
479.71	919.5
477.659	939
475.607	914
473.555	917.5
471.502	934.5
469.448	920
467.395	902.5
465.34	881
463.285	899.5
461.23	911
459.174	921
457.118	932
455.061	931.5
453.003	954.5
450.945	961.5
448.887	965.5
446.828	968
444.768	961
442.708	975.5
440.647	976.5
438.587	946.5
436.525	988
434.463	986
432.4	993.5
430.337	1011
428.274	1020
426.21	987
424.145	995
422.079	994
420.014	1005
417.948	1035.5
415.882	1017.5
413.814	1031
411.746	1025.5
409.679	1011
407.609	1038
405.54	1046
403.47	1054
401.401	1044
399.329	1026
397.258	1043
395.187	1023.5
393.114	1039
391.041	1034.5
388.968	1056.5
386.895	1060
384.82	1055.5
382.745	1061
380.67	1054.5
378.594	1041
376.517	1100
374.44	1083.5
372.363	1071
370.286	1099
368.207	1055
366.128	1079
364.049	1095.5
361.969	1095.5
359.888	1087
357.807	1122
355.725	1113.5
353.643	1138
351.561	1131.5
349.477	1114.5
347.394	1141
345.31	1158.5
343.226	1137.5
341.141	1144.5
339.055	1172
336.968	1192
334.882	1172.5
332.795	1209.5
330.707	1195.5
328.618	1197.5
326.53	1189.5
324.44	1239
322.351	1231.5
320.26	1247.5
318.17	1267
316.078	1298.5
313.987	1345
311.895	1377
309.802	1416.5
307.708	1427
305.614	1464.5
303.52	1440
301.425	1485
299.329	1433.5
297.233	1451
295.137	1438.5
293.039	1393
290.942	1357.5
288.844	1378
286.745	1389
284.647	1403
282.546	1411.5
280.446	1408
278.346	1398.5
276.245	1417.5
274.143	1410.5
272.041	1401
269.939	1407.5
267.835	1434.5
265.731	1450.5
263.627	1460.5
261.522	1479
259.417	1500
257.311	1481.5
255.204	1520
253.098	1472.5
250.99	1511.5
248.882	1522
246.774	1535
244.664	1519
242.555	1572.5
240.445	1539
238.334	1579.5
236.223	1587.5
234.112	1597
232	1651.5
229.888	1648
227.775	1678.5
225.661	1661
223.546	1666
221.431	1671.5
219.316	1705.5
217.201	1694.5
215.084	1723.5
212.967	1713
210.85	1729
208.732	1727
206.614	1713
204.495	1722.5
202.375	1716
200.256	1703
198.135	1674.5
196.014	1724
193.893	1712
191.771	1729.5
189.648	1714.5
187.525	1698.5
185.401	1705.5
183.277	1691
181.152	1724.5
179.027	1701
176.901	1694
174.775	1689.5
172.648	1731.5
170.521	1736
168.393	1745.5
166.265	1764.5
164.136	1802.5
162.007	1811
159.876	1829.5
157.746	1854
155.615	1870
153.483	1915
151.351	1951
149.219	1989.5
147.086	2040
144.952	2081
142.818	2130
140.684	2192.5
138.548	2284
136.413	2320
134.276	2319.5
132.139	2425
130.002	2500
127.864	2557
125.725	2616
123.587	2739.5
121.447	2814
119.307	2918
117.166	3007.5
115.026	3153.5
112.885	3205
110.743	3301
108.6	3392
106.456	3478
104.313	3509
102.169	3524.5
100.023	3399.5
97.8789	3187
95.7328	2960
93.5869	2610
91.4392	2257
89.2919	1846
87.1447	1481
84.9959	1129
