3528.51	148
3527.23	148
3525.95	152
3524.67	168.5
3523.39	171
3522.1	164
3520.82	173.5
3519.54	166
3518.26	175
3516.97	170
3515.69	168
3514.4	169.5
3513.12	173
3511.84	173
3510.55	179
3509.26	174
3507.98	169
3506.69	186.5
3505.41	186.5
3504.12	179
3502.83	187
3501.54	184
3500.26	186
3498.97	201.5
3497.68	207
3496.39	194.5
3495.1	211.5
3493.81	202.5
3492.52	219.5
3491.23	217
3489.94	222
3488.65	222
3487.36	216.5
3486.07	223
3484.78	222.5
3483.49	241
3482.19	230.5
3480.9	243
3479.61	235
3478.31	246.5
3477.02	230
3475.73	249.5
3474.43	252
3473.14	253.5
3471.84	257
3470.54	256.5
3469.25	255
3467.95	271
3466.66	255.5
3465.36	271
3464.06	254
3462.76	269
3461.46	279.5
3460.17	267
3458.87	270.5
3457.57	289.5
3456.27	286.5
3454.97	288
3453.67	290
3452.37	291
3451.07	289
3449.77	294
3448.47	297
3447.16	303
3445.86	306
3444.56	315
3443.26	324.5
3441.95	327
3440.65	328.5
3439.35	338
3438.04	336.5
3436.74	356.5
3435.43	350
3434.13	364.5
3432.82	385
3431.52	361
3430.21	389.5
3428.9	383.5
3427.6	384
3426.29	390.5
3424.98	406.5
3423.67	410
3422.36	412
3421.06	417
3419.75	425
3418.44	419
3417.13	443
3415.82	436
3414.51	452
3413.2	456.5
3411.88	442
3410.57	469
3409.26	453.5
3407.95	464
3406.64	474
3405.32	466
3404.01	461
3402.7	486
3401.38	482
3400.07	487.5
3398.75	463
3397.44	500
3396.12	487
3394.81	492
3393.49	484
3392.18	516.5
3390.86	511.5
3389.54	526
3388.23	515
3386.91	516
3385.59	525
3384.27	551.5
3382.95	546
3381.63	529
3380.31	550.5
3378.99	533.5
3377.67	566.5
3376.35	565
3375.03	560
3373.71	570.5
3372.39	560.5
3371.07	587
3369.75	603.5
3368.42	596
3367.1	591.5
3365.78	597
3364.45	614.5
3363.13	612
3361.81	603
3360.48	618
3359.16	594
3357.83	627.5
3356.51	636.5
3355.18	637
3353.85	650
3352.53	636.5
3351.2	639.5
3349.87	638.5
3348.54	650
3347.22	650.5
3345.89	640.5
3344.56	651
3343.23	659
3341.9	654
3340.57	643.5
3339.24	657.5
3337.91	650.5
3336.58	652
3335.25	672
3333.92	673
3332.58	662
3331.25	679
3329.92	658.5
3328.59	680
3327.25	667.5
3325.92	712.5
3324.58	695
3323.25	699
3321.92	684
3320.58	697.5
3319.25	708.5
3317.91	710
3316.57	703
3315.24	700
3313.9	711
3312.56	712
3311.23	712
3309.89	721
3308.55	711
3307.21	730.5
3305.87	722
3304.53	753.5
3303.19	742.5
3301.85	756.5
3300.51	752
3299.17	759.5
3297.83	735
3296.49	754
3295.15	769.5
3293.81	759
3292.46	759
3291.12	768
3289.78	789
3288.43	776
3287.09	775
3285.75	797.5
3284.4	788
3283.06	778.5
3281.71	781
3280.37	793.5
3279.02	802.5
3277.67	802
3276.33	823
3274.98	838
3273.63	838.5
3272.28	831.5
3270.94	846.5
3269.59	850
3268.24	840
3266.89	881
3265.54	893.5
3264.19	888
3262.84	890
3261.49	944.5
3260.14	939
3258.79	961.5
3257.44	968
3256.08	1001
3254.73	1011
3253.38	1051
3252.03	1068
3250.67	1090.5
3249.32	1129
3247.96	1147.5
3246.61	1185
3245.26	1247
3243.9	1248.5
3242.54	1291
3241.19	1319.5
3239.83	1374.5
3238.48	1383
3237.12	1420
3235.76	1442
3234.41	1490.5
3233.05	1493
3231.69	1526
3230.33	1558.5
3228.97	1588.5
3227.61	1609
3226.25	1629.5
3224.89	1656.5
3223.53	1720.5
3222.17	1714
3220.81	1716
3219.45	1738
3218.09	1763.5
3216.72	1746.5
3215.36	1771
3214	1814.5
3212.63	1814.5
3211.27	1822
3209.91	1813
3208.54	1857
3207.18	1842
3205.81	1887.5
3204.45	1864.5
3203.08	1902.5
3201.71	1926.5
3200.35	1933
3198.98	1918
3197.61	1939.5
3196.25	1954
3194.88	2011
3193.51	1984.5
3192.14	1997.5
3190.77	1976
3189.4	2036
3188.03	2059
3186.66	2042
3185.29	2055.5
3183.92	2049
3182.55	2051.5
3181.18	2081.5
3179.81	2072
3178.44	2107.5
3177.06	2142.5
3175.69	2183
3174.32	2144.5
3172.94	2191.5
3171.57	2195.5
3170.2	2192.5
3168.82	2204
3167.45	2253
3166.07	2254
3164.69	2266
3163.32	2301.5
3161.94	2279.5
3160.56	2326
3159.19	2331
3157.81	2369.5
3156.43	2345.5
3155.05	2373
3153.67	2380.5
3152.3	2396
3150.92	2453
3149.54	2433
3148.16	2461
3146.78	2466.5
3145.4	2513
3144.01	2525
3142.63	2543.5
3141.25	2512
3139.87	2580.5
3138.49	2555
3137.1	2585.5
3135.72	2625
3134.34	2630.5
3132.95	2641.5
3131.57	2686
3130.18	2659
3128.8	2708
3127.41	2768.5
3126.03	2737
3124.64	2741.5
3123.25	2800.5
3121.87	2824
3120.48	2793
3119.09	2792
3117.7	2815
3116.32	2823.5
3114.93	2871.5
3113.54	2890
3112.15	2923.5
3110.76	2910.5
3109.37	2937.5
3107.98	2945.5
3106.59	2929
3105.2	2979.5
3103.8	3004
3102.41	2958
3101.02	3020
3099.63	2962
3098.23	3000.5
3096.84	3012.5
3095.45	3033.5
3094.05	3082.5
3092.66	3078
3091.26	3074.5
3089.87	3083.5
3088.47	3098
3087.08	3117
3085.68	3065.5
3084.28	3132.5
3082.89	3128
3081.49	3162
3080.09	3137.5
3078.69	3180
3077.3	3197.5
3075.9	3184
3074.5	3192
3073.1	3200
3071.7	3176
3070.3	3206
3068.9	3210
3067.5	3267
3066.09	3258
3064.69	3240.5
3063.29	3288.5
3061.89	3275
3060.48	3304
3059.08	3315.5
3057.68	3304
3056.27	3306
3054.87	3327
3053.46	3358
3052.06	3350
3050.65	3357.5
3049.25	3348
3047.84	3380
3046.44	3393
3045.03	3388
3043.62	3435.5
3042.21	3445.5
3040.81	3388.5
3039.4	3420
3037.99	3448
3036.58	3465
3035.17	3420
3033.76	3464
3032.35	3444.5
3030.94	3486.5
3029.53	3489
3028.12	3496
3026.71	3489
3025.29	3484.5
3023.88	3472.5
3022.47	3486
3021.06	3510
3019.64	3502.5
3018.23	3508.5
3016.82	3493.5
3015.4	3530.5
3013.99	3525.5
3012.57	3545
3011.15	3545
3009.74	3563.5
3008.32	3559
3006.91	3595
3005.49	3577
3004.07	3604
3002.65	3611.5
3001.24	3623
2999.82	3656.5
2998.4	3656
2996.98	3672
2995.56	3679
2994.14	3719
2992.72	3724.5
2991.3	3715
2989.88	3754.5
2988.46	3781.5
2987.03	3781.5
2985.61	3843
2984.19	3852
2982.77	3862
2981.34	3877.5
2979.92	3900.5
2978.49	3923
2977.07	3930
2975.65	3941.5
2974.22	3963
2972.79	3953
2971.37	4021.5
2969.94	3988.5
2968.52	4030
2967.09	4064.5
2965.66	4027.5
2964.23	4077
2962.81	4031.5
2961.38	4088
2959.95	4060.5
2958.52	4095
2957.09	4102.5
2955.66	4102.5
2954.23	4111
2952.8	4110.5
2951.37	4110.5
2949.94	4136
2948.5	4120
2947.07	4146.5
2945.64	4154.5
2944.21	4165.5
2942.77	4172
2941.34	4189.5
2939.91	4175.5
2938.47	4188.5
2937.04	4239
2935.6	4198
2934.17	4242
2932.73	4282
2931.29	4304
2929.86	4302
2928.42	4290.5
2926.98	4271
2925.55	4322.5
2924.11	4324
2922.67	4359.5
2921.23	4298.5
2919.79	4371
2918.35	4348
2916.91	4315.5
2915.47	4391.5
2914.03	4331
2912.59	4350.5
2911.15	4382.5
2909.71	4368.5
2908.26	4385.5
2906.82	4379.5
2905.38	4402.5
2903.94	4420.5
2902.49	4387
2901.05	4440.5
2899.6	4476
2898.16	4416
2896.71	4412
2895.27	4436.5
2893.82	4425
2892.38	4374
2890.93	4465.5
2889.48	4435.5
2888.03	4419.5
2886.59	4383
2885.14	4375.5
2883.69	4421.5
2882.24	4423.5
2880.79	4429
2879.34	4465.5
2877.89	4442.5
2876.44	4422.5
2874.99	4431
2873.54	4440
2872.09	4443.5
2870.64	4455.5
2869.18	4442.5
2867.73	4482.5
2866.28	4418
2864.83	4455
2863.37	4470.5
2861.92	4425
2860.46	4470.5
2859.01	4454.5
2857.55	4456
2856.1	4473
2854.64	4494
2853.19	4449.5
2851.73	4443
2850.27	4447
2848.81	4472
2847.36	4486
2845.9	4434
2844.44	4461.5
2842.98	4454
2841.52	4409
2840.06	4454.5
2838.6	4449
2837.14	4424
2835.68	4494
2834.22	4455.5
2832.76	4473
2831.3	4485.5
2829.83	4467.5
2828.37	4483.5
2826.91	4486.5
2825.44	4485.5
2823.98	4434.5
2822.52	4472
2821.05	4446
2819.59	4453.5
2818.12	4400
2816.66	4436.5
2815.19	4392.5
2813.72	4401
2812.26	4431.5
2810.79	4346
2809.32	4392
2807.85	4370
2806.38	4407
2804.92	4395.5
2803.45	4415.5
2801.98	4425.5
2800.51	4440.5
2799.04	4410.5
2797.57	4438.5
2796.1	4440.5
2794.62	4425.5
2793.15	4437
2791.68	4456.5
2790.21	4425.5
2788.73	4476
2787.26	4447
2785.79	4412
2784.31	4521
2782.84	4466.5
2781.36	4453
2779.89	4466
2778.41	4476
2776.94	4451.5
2775.46	4467.5
2773.99	4505
2772.51	4501.5
2771.03	4494.5
2769.55	4524
2768.07	4523
2766.6	4538.5
2765.12	4540
2763.64	4532.5
2762.16	4508.5
2760.68	4531
2759.2	4568
2757.72	4541
2756.24	4572.5
2754.75	4536.5
2753.27	4584
2751.79	4507
2750.31	4536
2748.82	4528
2747.34	4505
2745.86	4527
2744.37	4500
2742.89	4513
2741.4	4513.5
2739.92	4489.5
2738.43	4475.5
2736.94	4471.5
2735.46	4459.5
2733.97	4510
2732.48	4442
2731	4459.5
2729.51	4482
2728.02	4441.5
2726.53	4506.5
2725.04	4389
2723.55	4428.5
2722.06	4440
2720.57	4453
2719.08	4445
2717.59	4432.5
2716.1	4481.5
2714.61	4463
2713.11	4485.5
2711.62	4469
2710.13	4516
2708.64	4474
2707.14	4443.5
2705.65	4438.5
2704.15	4461
2702.66	4439.5
2701.16	4411.5
2699.67	4478.5
2698.17	4418.5
2696.67	4376.5
2695.18	4410.5
2693.68	4372.5
2692.18	4374
2690.69	4365
2689.19	4353.5
2687.69	4382.5
2686.19	4382
2684.69	4296
2683.19	4318.5
2681.69	4283.5
2680.19	4307.5
2678.69	4309
2677.19	4332.5
2675.68	4316.5
2674.18	4285
2672.68	4318.5
2671.18	4302.5
2669.67	4273.5
2668.17	4318.5
2666.66	4280
2665.16	4313
2663.66	4277
2662.15	4304
2660.64	4301
2659.14	4298
2657.63	4264.5
2656.13	4262.5
2654.62	4286
2653.11	4237.5
2651.6	4233
2650.09	4231
2648.58	4191.5
2647.08	4219
2645.57	4216
2644.06	4231.5
2642.55	4204
2641.04	4156.5
2639.52	4167
2638.01	4168.5
2636.5	4188.5
2634.99	4154
2633.48	4178.5
2631.96	4127
2630.45	4090
2628.94	4070
2627.42	4093
2625.91	4074.5
2624.39	4082
2622.88	4069
2621.36	4085.5
2619.85	4112.5
2618.33	4079
2616.81	4107.5
2615.3	4112.5
2613.78	4106.5
2612.26	4130
2610.74	4092
2609.22	4082
2607.7	4083
2606.18	4104
2604.66	4070
2603.14	4078.5
2601.62	3993
2600.1	3983
2598.58	4017.5
2597.06	3971.5
2595.54	3968
2594.01	3971.5
2592.49	3919
2590.97	3925.5
2589.44	3924.5
2587.92	3917
2586.39	3900.5
2584.87	3912
2583.34	3930.5
2581.82	3884
2580.29	3890.5
2578.76	3932
2577.24	3927.5
2575.71	3917.5
2574.18	3884.5
2572.65	3862
2571.13	3847
2569.6	3909
2568.07	3845
2566.54	3873
2565.01	3870.5
2563.48	3854
2561.95	3871.5
2560.42	3829.5
2558.88	3817.5
2557.35	3829.5
2555.82	3816.5
2554.29	3833
2552.75	3803
2551.22	3826
2549.69	3820.5
2548.15	3778.5
2546.62	3772.5
2545.08	3751.5
2543.55	3713
2542.01	3734
2540.47	3743.5
2538.94	3755
2537.4	3705.5
2535.86	3703
2534.33	3675.5
2532.79	3687.5
2531.25	3699.5
2529.71	3641
2528.17	3646.5
2526.63	3627
2525.09	3625.5
2523.55	3578.5
2522.01	3645
2520.47	3604.5
2518.92	3638.5
2517.38	3590.5
2515.84	3529.5
2514.3	3538
2512.75	3516.5
2511.21	3534.5
2509.67	3544
2508.12	3505.5
2506.58	3490.5
2505.03	3470
2503.49	3476
2501.94	3421.5
2500.39	3431
2498.85	3432.5
2497.3	3442.5
2495.75	3441
2494.2	3406
2492.65	3380.5
2491.11	3387.5
2489.56	3374
2488.01	3392
2486.46	3354.5
2484.91	3335
2483.36	3337.5
2481.8	3332.5
2480.25	3310.5
2478.7	3247.5
2477.15	3284
2475.6	3277.5
2474.04	3270.5
2472.49	3234.5
2470.93	3244
2469.38	3221
2467.83	3209.5
2466.27	3230.5
2464.71	3200.5
2463.16	3181
2461.6	3204.5
2460.05	3142.5
2458.49	3166.5
2456.93	3176
2455.37	3141
2453.81	3142.5
2452.26	3148.5
2450.7	3096.5
2449.14	3105
2447.58	3062
2446.02	3063.5
2444.46	3060
2442.9	3047
2441.33	3023.5
2439.77	3011
2438.21	2960
2436.65	3015
2435.08	3004
2433.52	2990.5
2431.96	3023.5
2430.39	2957
2428.83	2971
2427.26	3008
2425.7	2985
2424.13	2941.5
2422.56	2996.5
2421	2967
2419.43	2968.5
2417.86	2957
2416.3	2922.5
2414.73	2923.5
2413.16	2890
2411.59	2878
2410.02	2932
2408.45	2903
2406.88	2922.5
2405.31	2881
2403.74	2897.5
2402.17	2903.5
2400.6	2911.5
2399.02	2888
2397.45	2884
2395.88	2870.5
2394.3	2870
2392.73	2820
2391.16	2844
2389.58	2806.5
2388.01	2812.5
2386.43	2813
2384.86	2822.5
2383.28	2823.5
2381.7	2796.5
2380.13	2809
2378.55	2840
2376.97	2829
2375.39	2822
2373.81	2805.5
2372.23	2776.5
2370.65	2787
2369.07	2815
2367.49	2783
2365.91	2760
2364.33	2755
2362.75	2751
2361.17	2717
2359.59	2748.5
2358.01	2732
2356.42	2698.5
2354.84	2706.5
2353.25	2705
2351.67	2706
2350.09	2713.5
2348.5	2701.5
2346.92	2719.5
2345.33	2691.5
2343.74	2680
2342.16	2680.5
2340.57	2706
2338.98	2650
2337.39	2647
2335.81	2654.5
2334.22	2654.5
2332.63	2627
2331.04	2595.5
2329.45	2624
2327.86	2600.5
2326.27	2626
2324.68	2601
2323.09	2642.5
2321.49	2584.5
2319.9	2577.5
2318.31	2575
2316.72	2543
2315.12	2585
2313.53	2568.5
2311.93	2563.5
2310.34	2536
2308.74	2485.5
2307.15	2493
2305.55	2517
2303.96	2463
2302.36	2460.5
2300.76	2462.5
2299.17	2420
2297.57	2415.5
2295.97	2457
2294.37	2434
2292.77	2448
2291.17	2453.5
2289.57	2416
2287.97	2429
2286.37	2436
2284.77	2404
2283.17	2412.5
2281.57	2345
2279.96	2371.5
2278.36	2373
2276.76	2380
2275.15	2366.5
2273.55	2330.5
2271.95	2353.5
2270.34	2331
2268.74	2326.5
2267.13	2324.5
2265.52	2294
2263.92	2284.5
2262.31	2315.5
2260.7	2238.5
2259.1	2298.5
2257.49	2244
2255.88	2247
2254.27	2263.5
2252.66	2247.5
2251.05	2237
2249.44	2265.5
2247.83	2218.5
2246.22	2231.5
2244.61	2236
2243	2236.5
2241.39	2211
2239.77	2184
2238.16	2187
2236.55	2161
2234.93	2133.5
2233.32	2171.5
2231.7	2120.5
2230.09	2151
2228.47	2139
2226.86	2143
2225.24	2099.5
2223.63	2123
2222.01	2089
2220.39	2075.5
2218.77	2089.5
2217.16	2072
2215.54	2078
2213.92	2078
2212.3	2076
2210.68	2088
2209.06	2075
2207.44	2072.5
2205.82	2069
2204.19	2043.5
2202.57	2051
2200.95	2039.5
2199.33	2032
2197.7	2018.5
2196.08	2019
2194.46	2004
2192.83	1988
2191.21	1990
2189.58	1973.5
2187.96	1940
2186.33	1971
2184.7	1963.5
2183.08	1964.5
2181.45	1954
2179.82	1943.5
2178.19	1933.5
2176.57	1933
2174.94	1924
2173.31	1913.5
2171.68	1883
2170.05	1884.5
2168.42	1887.5
2166.79	1882
2165.16	1859
2163.52	1889
2161.89	1844.5
2160.26	1894
2158.63	1855
2156.99	1830
2155.36	1858.5
2153.73	1832
2152.09	1838
2150.46	1816
2148.82	1807
2147.18	1802.5
2145.55	1813.5
2143.91	1790
2142.27	1794.5
2140.64	1787
2139	1768
2137.36	1778
2135.72	1740.5
2134.08	1768
2132.44	1742.5
2130.8	1730
2129.16	1717
2127.52	1723
2125.88	1689
2124.24	1697.5
2122.6	1672.5
2120.95	1670
2119.31	1684.5
2117.67	1655
2116.02	1703.5
2114.38	1635
2112.74	1621.5
2111.09	1632.5
2109.45	1619.5
2107.8	1627
2106.15	1617
2104.51	1637
2102.86	1607
2101.21	1632.5
2099.56	1601
2097.92	1582.5
2096.27	1586
2094.62	1598.5
2092.97	1567
2091.32	1564
2089.67	1596
2088.02	1566
2086.37	1562.5
2084.72	1584
2083.06	1572.5
2081.41	1535
2079.76	1543.5
2078.1	1545.5
2076.45	1545
2074.8	1556
2073.14	1508.5
2071.49	1526.5
2069.83	1532
2068.18	1511.5
2066.52	1512
2064.86	1501
2063.21	1521.5
2061.55	1514
2059.89	1495
2058.23	1489
2056.57	1498
2054.92	1441.5
2053.26	1470.5
2051.6	1436
2049.94	1476
2048.27	1436
2046.61	1473.5
2044.95	1418.5
2043.29	1420
2041.63	1439
2039.97	1423
2038.3	1428
2036.64	1401.5
2034.97	1400.5
2033.31	1382
2031.64	1368.5
2029.98	1368
2028.31	1384
2026.65	1356
2024.98	1356
2023.31	1356.5
2021.65	1344
2019.98	1326.5
2018.31	1331.5
2016.64	1335.5
2014.97	1344
2013.3	1331.5
2011.63	1321.5
2009.96	1318
2008.29	1309
2006.62	1303
2004.95	1300.5
2003.28	1265
2001.6	1276
1999.93	1266.5
1998.26	1267
1996.58	1277.5
1994.91	1274.5
1993.24	1297
1991.56	1275
1989.89	1263.5
1988.21	1272.5
1986.53	1268
1984.86	1228.5
1983.18	1246
1981.5	1243
1979.82	1217.5
1978.15	1213.5
1976.47	1222
1974.79	1217
1973.11	1191
1971.43	1187
1969.75	1198.5
1968.07	1190.5
1966.38	1195.5
1964.7	1192
1963.02	1193.5
1961.34	1187.5
1959.66	1170
1957.97	1184
1956.29	1163.5
1954.6	1164.5
1952.92	1156
1951.23	1140
1949.55	1140
1947.86	1142
1946.18	1145.5
1944.49	1152.5
1942.8	1104.5
1941.11	1138.5
1939.43	1128.5
1937.74	1105
1936.05	1129
1934.36	1072.5
1932.67	1088
1930.98	1063.5
1929.29	1087
1927.6	1078.5
1925.91	1090
1924.21	1070
1922.52	1078
1920.83	1085
1919.14	1055
1917.44	1064
1915.75	1053
1914.05	1077
1912.36	1030.5
1910.66	1048
1908.97	1038
1907.27	1055.5
1905.58	1033.5
1903.88	1010.5
1902.18	1011
1900.48	999
1898.79	1005.5
1897.09	998.5
1895.39	972
1893.69	953
1891.99	991
1890.29	974
1888.59	951.5
1886.89	948.5
1885.18	943
1883.48	944.5
1881.78	930.5
1880.08	939
1878.37	942
1876.67	953.5
1874.96	936
1873.26	936
1871.55	939
1869.85	916
1868.14	910
1866.44	911.5
1864.73	900.5
1863.02	912
1861.32	899
1859.61	885.5
1857.9	894.5
1856.19	884.5
1854.48	889.5
1852.77	862
1851.06	868
1849.35	870
1847.64	900
1845.93	867
1844.21	868.5
1842.5	860.5
1840.79	861
1839.08	853.5
1837.36	850.5
1835.65	831
1833.93	844
1832.22	827
1830.5	824.5
1828.79	806
1827.07	824.5
1825.36	813.5
1823.64	802
1821.92	809
1820.2	812.5
1818.48	794
1816.77	786.5
1815.05	783.5
1813.33	796
1811.61	771.5
1809.89	775.5
1808.16	773
1806.44	777
1804.72	779
1803	773.5
1801.28	752.5
1799.55	762
1797.83	749
1796.11	759
1794.38	730
1792.66	759
1790.93	755
1789.21	753
1787.48	735.5
1785.75	736.5
1784.03	732
1782.3	733
1780.57	725.5
1778.84	718
1777.11	723
1775.38	725.5
1773.66	721
1771.93	720
1770.19	724
1768.46	696
1766.73	713
1765	710.5
1763.27	732.5
1761.54	720.5
1759.8	689.5
1758.07	708
1756.34	703
1754.6	703
1752.87	703.5
1751.13	707.5
1749.4	688
1747.66	688
1745.92	675.5
1744.19	691
1742.45	690
1740.71	688
1738.97	697
1737.23	679
1735.49	669
1733.75	663
1732.01	661.5
1730.27	664.5
1728.53	677.5
1726.79	660.5
1725.05	668.5
1723.31	642
1721.57	646
1719.82	654.5
1718.08	641.5
1716.34	637
1714.59	621.5
1712.85	628
1711.1	636.5
1709.36	639
1707.61	630.5
1705.86	632.5
1704.12	599
1702.37	617.5
1700.62	607.5
1698.87	600
1697.12	604.5
1695.37	608.5
1693.62	584
1691.87	578.5
1690.12	599
1688.37	582.5
1686.62	587
1684.87	595
1683.12	590.5
1681.36	577.5
1679.61	586
1677.86	579
1676.1	571.5
1674.35	582
1672.59	554.5
1670.84	569
1669.08	562.5
1667.33	556
1665.57	564.5
1663.81	560.5
1662.06	536
1660.3	561.5
1658.54	550.5
1656.78	560
1655.02	560.5
1653.26	531.5
1651.5	542
1649.74	537
1647.98	535
1646.22	530
1644.46	534.5
1642.7	530
1640.93	547
1639.17	529
1637.41	528
1635.64	516.5
1633.88	514
1632.11	515
1630.35	511
1628.58	506.5
1626.81	507
1625.05	510
1623.28	512.5
1621.51	496
1619.75	496
1617.98	499.5
1616.21	499
1614.44	490.5
1612.67	483
1610.9	487
1609.13	494
1607.36	491
1605.58	472
1603.81	491
1602.04	478.5
1600.27	473
1598.49	475
1596.72	472.5
1594.95	471.5
1593.17	468
1591.4	457
1589.62	465
1587.84	465
1586.07	457
1584.29	469.5
1582.51	456
1580.74	462
1578.96	447
1577.18	451
1575.4	454
1573.62	460
1571.84	454.5
1570.06	438
1568.28	444
1566.5	445
1564.72	436
1562.93	446
1561.15	443.5
1559.37	426.5
1557.58	436.5
1555.8	435
1554.02	439
1552.23	437.5
1550.45	430.5
1548.66	428.5
1546.87	419.5
1545.09	417
1543.3	425.5
1541.51	422
1539.72	436
1537.94	404.5
1536.15	400
1534.36	403
1532.57	416.5
1530.78	404.5
1528.99	407
1527.2	402.5
1525.4	390
1523.61	401.5
1521.82	399.5
1520.03	387.5
1518.23	387.5
1516.44	385.5
1514.65	386.5
1512.85	391.5
1511.06	376
1509.26	377.5
1507.46	384.5
1505.67	394.5
1503.87	371.5
1502.07	399.5
1500.28	369
1498.48	365
1496.68	366.5
1494.88	371
1493.08	356.5
1491.28	363.5
1489.48	372.5
1487.68	356.5
1485.88	345.5
1484.08	376
1482.27	354
1480.47	363
1478.67	355.5
1476.86	337
1475.06	356.5
1473.25	345.5
1471.45	352
1469.64	347.5
1467.84	349.5
1466.03	369
1464.23	336
1462.42	352.5
1460.61	354
1458.8	343
1456.99	348.5
1455.18	330.5
1453.37	340.5
1451.56	345.5
1449.75	342.5
1447.94	341.5
1446.13	334.5
1444.32	330.5
1442.51	336
1440.7	324.5
1438.88	337.5
1437.07	326
1435.26	331.5
1433.44	334
1431.63	342.5
1429.81	330
1427.99	342.5
1426.18	326
1424.36	315
1422.54	323.5
1420.73	319
1418.91	307.5
1417.09	321.5
1415.27	311.5
1413.45	321.5
1411.63	334.5
1409.81	311
1407.99	310.5
1406.17	307
1404.35	312
1402.53	293.5
1400.7	299.5
1398.88	307
1397.06	303
1395.23	314
1393.41	296
1391.58	303
1389.76	289
1387.93	296
1386.11	286.5
1384.28	291
1382.45	292
1380.62	280
1378.8	298.5
1376.97	291
1375.14	299.5
1373.31	288
1371.48	274.5
1369.65	291
1367.82	295.5
1365.99	285.5
1364.16	281.5
1362.32	281
1360.49	282.5
1358.66	290.5
1356.82	276
1354.99	274.5
1353.16	274
1351.32	274.5
1349.48	272.5
1347.65	265
1345.81	268.5
1343.98	268
1342.14	272.5
1340.3	275.5
1338.46	263
1336.62	268
1334.79	261
1332.95	249
1331.11	262
1329.27	252.5
1327.42	243.5
1325.58	266.5
1323.74	257
1321.9	243
1320.06	266
1318.21	253
1316.37	247.5
1314.53	248.5
1312.68	248
1310.84	231
1308.99	230
1307.15	246
1305.3	246
1303.45	229.5
1301.61	237
1299.76	237
1297.91	236
1296.06	233
1294.21	250
1292.36	240
1290.51	238
1288.66	232.5
1286.81	233
1284.96	232.5
1283.11	226.5
1281.26	228
1279.4	232
1277.55	229.5
1275.7	219
1273.84	238
1271.99	220
1270.13	214
1268.28	210
1266.42	222
1264.56	221.5
1262.71	214.5
1260.85	217.5
1258.99	212
1257.13	210.5
1255.27	199
1253.41	219.5
1251.56	218
1249.7	219
1247.83	224
1245.97	214.5
1244.11	217
1242.25	212.5
1240.39	216
1238.52	208.5
1236.66	207.5
1234.8	210.5
1232.93	195.5
1231.07	215
1229.2	208.5
1227.34	201
1225.47	203.5
1223.6	189
1221.74	194
1219.87	197.5
1218	193
1216.13	198
1214.26	192
1212.39	194.5
1210.53	196.5
1208.65	188.5
1206.78	185
1204.91	187
1203.04	183
1201.17	181.5
1199.3	188
1197.42	187
1195.55	185
1193.68	181
1191.8	187
1189.93	189
1188.05	183
1186.17	177.5
1184.3	180.5
1182.42	194.5
1180.54	176
1178.67	180.5
1176.79	175
1174.91	178
1173.03	174
1171.15	174
1169.27	172
1167.39	181.5
1165.51	171
1163.63	168.5
1161.75	173
1159.86	180
1157.98	175
1156.1	179
1154.21	184.5
1152.33	164
1150.44	168
1148.56	175.5
1146.67	174.5
1144.79	170.5
1142.9	169
1141.01	176
1139.12	165.5
1137.24	174.5
1135.35	184
1133.46	173.5
1131.57	170
1129.68	168.5
1127.79	165.5
1125.9	162.5
1124.01	157
1122.12	169.5
1120.22	160.5
1118.33	161
1116.44	173
1114.54	165.5
1112.65	154.5
1110.75	159
1108.86	157.5
1106.96	160
1105.07	158
1103.17	163.5
1101.27	152.5
1099.38	155
1097.48	152.5
1095.58	161.5
1093.68	152.5
1091.78	155
1089.88	160.5
1087.98	146.5
1086.08	156.5
1084.18	152
1082.28	153
1080.38	147.5
1078.47	148
1076.57	148
1074.67	152.5
1072.76	149
1070.86	146
1068.95	144
1067.05	152
1065.14	155.5
1063.24	150
1061.33	137
1059.42	144.5
1057.51	155
1055.6	142
1053.7	143
1051.79	142
1049.88	152
1047.97	150.5
1046.06	132
1044.14	136
1042.23	154.5
1040.32	140
1038.41	150
1036.5	151.5
1034.58	141
1032.67	142
1030.75	149.5
1028.84	149
1026.92	142.5
1025.01	138
1023.09	154
1021.17	147.5
1019.26	152
1017.34	154
1015.42	151.5
1013.5	148.5
1011.58	155.5
1009.66	155
1007.74	158
1005.82	151
1003.9	159
1001.98	163
1000.06	159
998.134	169.5
996.212	168.5
994.288	159
992.364	189
990.44	175.5
988.515	189.5
986.589	202.5
984.663	231.5
982.737	203.5
980.81	218.5
978.883	224.5
976.955	222.5
975.027	210
973.098	228
971.169	218.5
969.239	229
967.308	223.5
965.378	219
963.447	241
961.516	230
959.583	233.5
957.65	231.5
955.718	236
953.784	241.5
951.85	243
949.916	242
947.981	247.5
946.045	264
944.109	259.5
942.173	256.5
940.236	259
938.298	258.5
936.36	243.5
934.422	238
932.484	212
930.544	199
928.604	181
926.664	163
924.724	162
922.782	141
920.84	145
918.898	142.5
916.955	155
915.012	138.5
913.068	134
911.124	135.5
909.18	134.5
907.235	144.5
905.289	134
903.343	136
901.397	136.5
899.45	136.5
897.502	133.5
895.554	135.5
893.605	118
891.657	126
889.707	132.5
887.758	131.5
885.807	126
883.856	134
881.905	130
879.953	130
878.001	135.5
876.048	130.5
874.094	139
872.14	133.5
870.186	130
868.232	129
866.276	131.5
864.321	127.5
862.365	144.5
860.408	121
858.451	128.5
856.493	134
854.535	119
852.576	127.5
850.617	121
848.658	119
846.698	133
844.737	124
842.776	121
840.814	127
838.852	126.5
836.89	126.5
834.927	119
832.963	114.5
830.999	120
829.035	117.5
827.07	121.5
825.105	126
823.139	131.5
821.172	127.5
819.206	127
817.238	121.5
815.27	114.5
813.301	129.5
811.333	119
809.363	117.5
807.394	126
805.424	117
803.453	111
801.482	116.5
799.509	118.5
797.538	111
795.565	115.5
793.592	115
791.618	119.5
789.643	121
787.669	124
785.693	117
783.718	111.5
781.742	114.5
779.765	109.5
777.788	113
775.811	109
773.832	115
771.853	109.5
769.875	108
767.895	111
765.915	102
763.934	102.5
761.953	112
759.972	101
757.99	108.5
756.007	102.5
754.024	104
752.041	114
750.056	104
748.072	121
746.087	113.5
744.102	105.5
742.116	102.5
740.13	114.5
738.143	99.5
736.155	106.5
734.167	111
732.179	102.5
730.19	103
728.2	104.5
726.21	108.5
724.22	108.5
722.229	109.5
720.237	111
718.246	107.5
716.253	108
714.26	99.5
712.267	118.5
710.273	104
708.279	111.5
706.284	107.5
704.289	109
702.293	97
700.296	115.5
698.3	106
696.303	112
694.305	112.5
692.307	118.5
690.307	115
688.308	118
686.309	117.5
684.308	110
682.308	125.5
680.306	107
678.304	123.5
676.302	119.5
674.3	125
672.296	116
670.293	123.5
668.289	122
666.284	115
664.278	119.5
662.273	119.5
660.266	125
658.26	129.5
656.252	116
654.244	130
652.237	126
650.227	127
648.218	129.5
646.209	119
644.198	121.5
642.188	121
640.177	124.5
638.165	126.5
636.153	119
634.14	128
632.128	136
630.113	129.5
628.099	127.5
626.085	129.5
624.07	135.5
622.054	133.5
620.038	132
618.021	133.5
616.004	133
613.986	128.5
611.968	118
609.949	121
607.93	126.5
605.911	125.5
603.891	121
601.87	115.5
599.848	122.5
597.827	120
595.805	114
593.782	124
591.759	115
589.735	115.5
587.711	113
585.687	121
583.661	125.5
581.636	122.5
579.609	125
577.583	124
575.555	117.5
573.527	125.5
571.5	134
569.471	128.5
567.441	137.5
565.412	132.5
563.382	143
561.351	128
559.32	137.5
557.289	138.5
555.257	151.5
553.223	152
551.19	169.5
549.157	169
547.122	177.5
545.088	184.5
543.053	210
541.017	210
538.981	240
536.943	291
534.907	367
532.869	498.5
530.831	729
528.792	1125
526.752	1769
524.713	2752.5
522.673	3547.5
520.632	3632.5
518.591	2982
516.549	2075
514.507	1349.5
512.464	862.5
510.42	570
508.377	385.5
506.332	309.5
504.288	260.5
502.242	228.5
500.196	214
498.15	195.5
496.104	185.5
494.056	175
492.008	171.5
489.96	177
487.911	168
485.862	163.5
483.812	148.5
481.761	143
479.71	148
477.659	143.5
475.607	140.5
473.555	140.5
471.502	135.5
469.448	147.5
467.395	140
465.34	138
463.285	130.5
461.23	141
459.174	129.5
457.118	136.5
455.061	141
453.003	135.5
450.945	139.5
448.887	143.5
446.828	139
444.768	137.5
442.708	150
440.647	147
438.587	153.5
436.525	149
434.463	150
432.4	155
430.337	152.5
428.274	146
426.21	148.5
424.145	148.5
422.079	143.5
420.014	146
417.948	151
415.882	147
413.814	147.5
411.746	138
409.679	147
407.609	143.5
405.54	151.5
403.47	145
401.401	152
399.329	143.5
397.258	149
395.187	146
393.114	146
391.041	144
388.968	157
386.895	149.5
384.82	154.5
382.745	150
380.67	145
378.594	164
376.517	142
374.44	155.5
372.363	144.5
370.286	155
368.207	154
366.128	163
364.049	161
361.969	156.5
359.888	157
357.807	161
355.725	158
353.643	158.5
351.561	160
349.477	164.5
347.394	164
345.31	159
343.226	169
341.141	163.5
339.055	167
336.968	173.5
334.882	175
332.795	180
330.707	183
328.618	189.5
326.53	190.5
324.44	184
322.351	202.5
320.26	201
318.17	216
316.078	225.5
313.987	239.5
311.895	243
309.802	262
307.708	278
305.614	288
303.52	297
301.425	283
299.329	265
297.233	248
295.137	234.5
293.039	225.5
290.942	198.5
288.844	203
286.745	189
284.647	183
282.546	187.5
280.446	177
278.346	166
276.245	178.5
274.143	179.5
272.041	170
269.939	167
267.835	170
265.731	163
263.627	169
261.522	168.5
259.417	156
257.311	154.5
255.204	162
253.098	163
250.99	162.5
248.882	162
246.774	156
244.664	148
242.555	148.5
240.445	152
238.334	151
236.223	153
234.112	145.5
232	154
229.888	152
227.775	145.5
225.661	152
223.546	136.5
221.431	139
219.316	143
217.201	137.5
215.084	143.5
212.967	131.5
210.85	135
208.732	137
206.614	137
204.495	129
202.375	139.5
200.256	135
198.135	135.5
196.014	131
193.893	141
191.771	131.5
189.648	142.5
187.525	132.5
185.401	138
183.277	138.5
181.152	136
179.027	139
176.901	137
174.775	143
172.648	152
170.521	148
168.393	158
166.265	159.5
164.136	144.5
162.007	162
159.876	161.5
157.746	161.5
155.615	166.5
153.483	164.5
151.351	169.5
149.219	171.5
147.086	178.5
144.952	187
142.818	191.5
140.684	192
138.548	190.5
136.413	193
134.276	198
132.139	211.5
130.002	214.5
127.864	208
125.725	219.5
123.587	221.5
121.447	224
119.307	226
117.166	245.5
115.026	249
112.885	237
110.743	265
108.6	255.5
106.456	255
104.313	269
102.169	260
100.023	243
97.8789	245.5
95.7328	228
93.5869	202
91.4392	182.5
89.2919	155
87.1447	125
84.9959	102
