3528.51	191
3527.23	197
3525.95	222
3524.67	174
3523.39	209.5
3522.1	237
3520.82	212
3519.54	229
3518.26	213.5
3516.97	236.5
3515.69	212
3514.4	210
3513.12	221.5
3511.84	220
3510.55	227.5
3509.26	236
3507.98	185
3506.69	244
3505.41	220
3504.12	242
3502.83	230
3501.54	228.5
3500.26	234
3498.97	244
3497.68	204.5
3496.39	267.5
3495.1	256
3493.81	246
3492.52	237
3491.23	253
3489.94	262.5
3488.65	262
3487.36	247.5
3486.07	273
3484.78	285.5
3483.49	305
3482.19	266
3480.9	282.5
3479.61	292
3478.31	277.5
3477.02	267.5
3475.73	284
3474.43	302
3473.14	292.5
3471.84	310
3470.54	301
3469.25	292
3467.95	311
3466.66	305.5
3465.36	297
3464.06	319.5
3462.76	292
3461.46	321.5
3460.17	352
3458.87	318
3457.57	331.5
3456.27	328.5
3454.97	321
3453.67	340
3452.37	355.5
3451.07	319
3449.77	347.5
3448.47	374
3447.16	326
3445.86	358
3444.56	354.5
3443.26	344.5
3441.95	364
3440.65	374.5
3439.35	359
3438.04	372.5
3436.74	381.5
3435.43	392.5
3434.13	377
3432.82	420
3431.52	398.5
3430.21	389
3428.9	457
3427.6	440.5
3426.29	454.5
3424.98	434.5
3423.67	430
3422.36	492
3421.06	460
3419.75	488
3418.44	480
3417.13	470.5
3415.82	485
3414.51	488
3413.2	481
3411.88	475.5
3410.57	485
3409.26	494
3407.95	542
3406.64	545.5
3405.32	553
3404.01	551.5
3402.7	521
3401.38	532.5
3400.07	529
3398.75	561.5
3397.44	540
3396.12	551
3394.81	547
3393.49	587
3392.18	580
3390.86	592
3389.54	564.5
3388.23	584.5
3386.91	592
3385.59	592
3384.27	600.5
3382.95	613
3381.63	603
3380.31	599
3378.99	648.5
3377.67	584
3376.35	596
3375.03	607
3373.71	651
3372.39	670
3371.07	639.5
3369.75	638
3368.42	636
3367.1	636
3365.78	651
3364.45	682
3363.13	693
3361.81	674
3360.48	688
3359.16	679
3357.83	698.5
3356.51	708
3355.18	722
3353.85	666
3352.53	732.5
3351.2	725
3349.87	713
3348.54	723
3347.22	727
3345.89	723
3344.56	720
3343.23	696.5
3341.9	743
3340.57	710
3339.24	761.5
3337.91	732
3336.58	733
3335.25	766.5
3333.92	751
3332.58	740.5
3331.25	784.5
3329.92	736
3328.59	763.5
3327.25	755
3325.92	784
3324.58	775
3323.25	762.5
3321.92	746
3320.58	794.5
3319.25	775
3317.91	791.5
3316.57	803.5
3315.24	789.5
3313.9	802
3312.56	793
3311.23	841.5
3309.89	833
3308.55	818
3307.21	812
3305.87	860
3304.53	820
3303.19	842
3301.85	824
3300.51	816.5
3299.17	840
3297.83	863
3296.49	875.5
3295.15	894.5
3293.81	839
3292.46	856.5
3291.12	864
3289.78	866.5
3288.43	850
3287.09	929
3285.75	871
3284.4	880.5
3283.06	926
3281.71	893
3280.37	913
3279.02	861
3277.67	909
3276.33	924
3274.98	910.5
3273.63	936
3272.28	908
3270.94	895.5
3269.59	920
3268.24	929
3266.89	952.5
3265.54	956
3264.19	882
3262.84	938
3261.49	961
3260.14	963
3258.79	960
3257.44	994.5
3256.08	992
3254.73	1024
3253.38	1011
3252.03	1078
3250.67	1000
3249.32	1045
3247.96	1140
3246.61	1126.5
3245.26	1129
3243.9	1150
3242.54	1175
3241.19	1204
3239.83	1226
3238.48	1300
3237.12	1307.5
3235.76	1354
3234.41	1341
3233.05	1411
3231.69	1428
3230.33	1511
3228.97	1470
3227.61	1551.5
3226.25	1577
3224.89	1627.5
3223.53	1653.5
3222.17	1673
3220.81	1710
3219.45	1733.5
3218.09	1790
3216.72	1833
3215.36	1840
3214	1852
3212.63	1857
3211.27	1917
3209.91	1928
3208.54	1960
3207.18	1949
3205.81	1986
3204.45	1993
3203.08	2002.5
3201.71	2048
3200.35	2010
3198.98	2065.5
3197.61	2019
3196.25	2050
3194.88	2147.5
3193.51	2123
3192.14	2124
3190.77	2148.5
3189.4	2162.5
3188.03	2099
3186.66	2125
3185.29	2147.5
3183.92	2202
3182.55	2204
3181.18	2205
3179.81	2268.5
3178.44	2203.5
3177.06	2266
3175.69	2260
3174.32	2314.5
3172.94	2223
3171.57	2281
3170.2	2308
3168.82	2295
3167.45	2287
3166.07	2329.5
3164.69	2331
3163.32	2422
3161.94	2384
3160.56	2420
3159.19	2467
3157.81	2422
3156.43	2479
3155.05	2518
3153.67	2552.5
3152.3	2554
3150.92	2582.5
3149.54	2535
3148.16	2599
3146.78	2610
3145.4	2633.5
3144.01	2676
3142.63	2670.5
3141.25	2686.5
3139.87	2737.5
3138.49	2743.5
3137.1	2788
3135.72	2793
3134.34	2816
3132.95	2789
3131.57	2837
3130.18	2783
3128.8	2785.5
3127.41	2885
3126.03	2903.5
3124.64	2898
3123.25	2910
3121.87	2916.5
3120.48	2935
3119.09	2971
3117.7	3093.5
3116.32	3063.5
3114.93	3027
3113.54	3052.5
3112.15	3113.5
3110.76	3107.5
3109.37	3082
3107.98	3111
3106.59	3138.5
3105.2	3112
3103.8	3180.5
3102.41	3116
3101.02	3138
3099.63	3241
3098.23	3246
3096.84	3174
3095.45	3234.5
3094.05	3297.5
3092.66	3243
3091.26	3305
3089.87	3254
3088.47	3336.5
3087.08	3343
3085.68	3355
3084.28	3262
3082.89	3345
3081.49	3300
3080.09	3336.5
3078.69	3352
3077.3	3397
3075.9	3350
3074.5	3421
3073.1	3411
3071.7	3398
3070.3	3450.5
3068.9	3481
3067.5	3481.5
3066.09	3496
3064.69	3485
3063.29	3438
3061.89	3515
3060.48	3429
3059.08	3518
3057.68	3554
3056.27	3496
3054.87	3505.5
3053.46	3518
3052.06	3523
3050.65	3563
3049.25	3617.5
3047.84	3637
3046.44	3608.5
3045.03	3624.5
3043.62	3631
3042.21	3603
3040.81	3663
3039.4	3652.5
3037.99	3616
3036.58	3677
3035.17	3673.5
3033.76	3664
3032.35	3736.5
3030.94	3691
3029.53	3698
3028.12	3680
3026.71	3724
3025.29	3702
3023.88	3767.5
3022.47	3738
3021.06	3734
3019.64	3757.5
3018.23	3739.5
3016.82	3771
3015.4	3781.5
3013.99	3767
3012.57	3792
3011.15	3735
3009.74	3812
3008.32	3790.5
3006.91	3789
3005.49	3847.5
3004.07	3825
3002.65	3872
3001.24	3864.5
2999.82	3908.5
2998.4	3886
2996.98	3919.5
2995.56	3938
2994.14	3872.5
2992.72	3973.5
2991.3	3995
2989.88	3901.5
2988.46	4007
2987.03	4000.5
2985.61	3991
2984.19	3991
2982.77	4039.5
2981.34	4067
2979.92	4123
2978.49	4151
2977.07	4135.5
2975.65	4157.5
2974.22	4164.5
2972.79	4237.5
2971.37	4251
2969.94	4279
2968.52	4231.5
2967.09	4262
2965.66	4289
2964.23	4333.5
2962.81	4361.5
2961.38	4395
2959.95	4399
2958.52	4420
2957.09	4400.5
2955.66	4367.5
2954.23	4368.5
2952.8	4424
2951.37	4384
2949.94	4424
2948.5	4435
2947.07	4410.5
2945.64	4473
2944.21	4458.5
2942.77	4493.5
2941.34	4421
2939.91	4433
2938.47	4547.5
2937.04	4571
2935.6	4573
2934.17	4565
2932.73	4508
2931.29	4615.5
2929.86	4532
2928.42	4577.5
2926.98	4646
2925.55	4625.5
2924.11	4631.5
2922.67	4697.5
2921.23	4605.5
2919.79	4637
2918.35	4657.5
2916.91	4595
2915.47	4671.5
2914.03	4630.5
2912.59	4704.5
2911.15	4723
2909.71	4673.5
2908.26	4695
2906.82	4702
2905.38	4748
2903.94	4731.5
2902.49	4775.5
2901.05	4752
2899.6	4763
2898.16	4778
2896.71	4734
2895.27	4794
2893.82	4821.5
2892.38	4786
2890.93	4809
2889.48	4777
2888.03	4870
2886.59	4824
2885.14	4854.5
2883.69	4855
2882.24	4822
2880.79	4851.5
2879.34	4814.5
2877.89	4772
2876.44	4850
2874.99	4849
2873.54	4825.5
2872.09	4866.5
2870.64	4848
2869.18	4850
2867.73	4870
2866.28	4783.5
2864.83	4877.5
2863.37	4851.5
2861.92	4823.5
2860.46	4807.5
2859.01	4867
2857.55	4905.5
2856.1	4865
2854.64	4843
2853.19	4876
2851.73	4885
2850.27	4827
2848.81	4941
2847.36	4895
2845.9	4901
2844.44	4922
2842.98	4872
2841.52	4896.5
2840.06	4913
2838.6	4900.5
2837.14	4817.5
2835.68	4843
2834.22	4799
2832.76	4852
2831.3	4828.5
2829.83	4788
2828.37	4767
2826.91	4727
2825.44	4753
2823.98	4742.5
2822.52	4759
2821.05	4772
2819.59	4754
2818.12	4697
2816.66	4655.5
2815.19	4642
2813.72	4725
2812.26	4656.5
2810.79	4604
2809.32	4592.5
2807.85	4647
2806.38	4609
2804.92	4665
2803.45	4673.5
2801.98	4628.5
2800.51	4633
2799.04	4625
2797.57	4614
2796.1	4553.5
2794.62	4589
2793.15	4531
2791.68	4574.5
2790.21	4618.5
2788.73	4569
2787.26	4563.5
2785.79	4581
2784.31	4532.5
2782.84	4588
2781.36	4556
2779.89	4585.5
2778.41	4617.5
2776.94	4613.5
2775.46	4508
2773.99	4514
2772.51	4559.5
2771.03	4588
2769.55	4573.5
2768.07	4536
2766.6	4533.5
2765.12	4627
2763.64	4591.5
2762.16	4532
2760.68	4545
2759.2	4505
2757.72	4506
2756.24	4578
2754.75	4535
2753.27	4571.5
2751.79	4587
2750.31	4576
2748.82	4547
2747.34	4537
2745.86	4548
2744.37	4536.5
2742.89	4561.5
2741.4	4490.5
2739.92	4432
2738.43	4523.5
2736.94	4557
2735.46	4536.5
2733.97	4599
2732.48	4527
2731	4626.5
2729.51	4594.5
2728.02	4626.5
2726.53	4553
2725.04	4510.5
2723.55	4608
2722.06	4540
2720.57	4570
2719.08	4594.5
2717.59	4557
2716.1	4545.5
2714.61	4492.5
2713.11	4522
2711.62	4446.5
2710.13	4514.5
2708.64	4523.5
2707.14	4460.5
2705.65	4461
2704.15	4493
2702.66	4456.5
2701.16	4453.5
2699.67	4357.5
2698.17	4410
2696.67	4404.5
2695.18	4435.5
2693.68	4380
2692.18	4479
2690.69	4395.5
2689.19	4392.5
2687.69	4412
2686.19	4429
2684.69	4382
2683.19	4376
2681.69	4343
2680.19	4361
2678.69	4404.5
2677.19	4350
2675.68	4301.5
2674.18	4343
2672.68	4319
2671.18	4339.5
2669.67	4336
2668.17	4357.5
2666.66	4343.5
2665.16	4302.5
2663.66	4270
2662.15	4305
2660.64	4312
2659.14	4244.5
2657.63	4280
2656.13	4306
2654.62	4292.5
2653.11	4267
2651.6	4227
2650.09	4255
2648.58	4337.5
2647.08	4295
2645.57	4286.5
2644.06	4259
2642.55	4257.5
2641.04	4225
2639.52	4191
2638.01	4219
2636.5	4273
2634.99	4252
2633.48	4246
2631.96	4162.5
2630.45	4194.5
2628.94	4221.5
2627.42	4170.5
2625.91	4185.5
2624.39	4126
2622.88	4130.5
2621.36	4168.5
2619.85	4181
2618.33	4176
2616.81	4193.5
2615.3	4155.5
2613.78	4100.5
2612.26	4149.5
2610.74	4121.5
2609.22	4067.5
2607.7	4095.5
2606.18	4102.5
2604.66	4053.5
2603.14	4084
2601.62	4055.5
2600.1	4067
2598.58	3980.5
2597.06	4051.5
2595.54	4003.5
2594.01	4056
2592.49	4020
2590.97	4005.5
2589.44	3992
2587.92	4007.5
2586.39	4016
2584.87	4022.5
2583.34	3979.5
2581.82	3987.5
2580.29	4016.5
2578.76	3892
2577.24	3982
2575.71	3921
2574.18	3982
2572.65	3946
2571.13	3944
2569.6	3970.5
2568.07	3923
2566.54	3867
2565.01	3867.5
2563.48	3880
2561.95	3847
2560.42	3810.5
2558.88	3820.5
2557.35	3757
2555.82	3891
2554.29	3847
2552.75	3811.5
2551.22	3794.5
2549.69	3766
2548.15	3835.5
2546.62	3805
2545.08	3735.5
2543.55	3749.5
2542.01	3715.5
2540.47	3746
2538.94	3726
2537.4	3719
2535.86	3702.5
2534.33	3753
2532.79	3709.5
2531.25	3697
2529.71	3695
2528.17	3664
2526.63	3620
2525.09	3656.5
2523.55	3583.5
2522.01	3646.5
2520.47	3577
2518.92	3599.5
2517.38	3568.5
2515.84	3588.5
2514.3	3552
2512.75	3574.5
2511.21	3508
2509.67	3506
2508.12	3470
2506.58	3489.5
2505.03	3476.5
2503.49	3532.5
2501.94	3478.5
2500.39	3465
2498.85	3470.5
2497.3	3460
2495.75	3410
2494.2	3415
2492.65	3429
2491.11	3433.5
2489.56	3385.5
2488.01	3415.5
2486.46	3451
2484.91	3406
2483.36	3373
2481.8	3382
2480.25	3371.5
2478.7	3334
2477.15	3330
2475.6	3380.5
2474.04	3323
2472.49	3262
2470.93	3258.5
2469.38	3284
2467.83	3213
2466.27	3231.5
2464.71	3263
2463.16	3219
2461.6	3213
2460.05	3165
2458.49	3209
2456.93	3195.5
2455.37	3213
2453.81	3217.5
2452.26	3170
2450.7	3185.5
2449.14	3207.5
2447.58	3133
2446.02	3123.5
2444.46	3091
2442.9	3048
2441.33	3057
2439.77	3035
2438.21	3068
2436.65	3038.5
2435.08	3013
2433.52	3074.5
2431.96	3043
2430.39	3005
2428.83	3014
2427.26	3033.5
2425.7	2958
2424.13	3000.5
2422.56	2980.5
2421	3016
2419.43	2969
2417.86	2913.5
2416.3	2919.5
2414.73	2884
2413.16	2859
2411.59	2913
2410.02	2842
2408.45	2863.5
2406.88	2828
2405.31	2893
2403.74	2909
2402.17	2901
2400.6	2892
2399.02	2853
2397.45	2827.5
2395.88	2838
2394.3	2825
2392.73	2754.5
2391.16	2837
2389.58	2820.5
2388.01	2748
2386.43	2810
2384.86	2782.5
2383.28	2839
2381.7	2730.5
2380.13	2735
2378.55	2772.5
2376.97	2775.5
2375.39	2765.5
2373.81	2748.5
2372.23	2810
2370.65	2784.5
2369.07	2735
2367.49	2717
2365.91	2721.5
2364.33	2720.5
2362.75	2696.5
2361.17	2726.5
2359.59	2742
2358.01	2730
2356.42	2701
2354.84	2639.5
2353.25	2690
2351.67	2686
2350.09	2651
2348.5	2625
2346.92	2648.5
2345.33	2654
2343.74	2661.5
2342.16	2664
2340.57	2615.5
2338.98	2616
2337.39	2569
2335.81	2584
2334.22	2639.5
2332.63	2611
2331.04	2572.5
2329.45	2627.5
2327.86	2643.5
2326.27	2601
2324.68	2641.5
2323.09	2603.5
2321.49	2624
2319.9	2634.5
2318.31	2576
2316.72	2594
2315.12	2559.5
2313.53	2507.5
2311.93	2568.5
2310.34	2502.5
2308.74	2517.5
2307.15	2489.5
2305.55	2493
2303.96	2473.5
2302.36	2446.5
2300.76	2428.5
2299.17	2505.5
2297.57	2447
2295.97	2415.5
2294.37	2477
2292.77	2397
2291.17	2358.5
2289.57	2397
2287.97	2397
2286.37	2383.5
2284.77	2351
2283.17	2351
2281.57	2281
2279.96	2329
2278.36	2327
2276.76	2293.5
2275.15	2337
2273.55	2298
2271.95	2286
2270.34	2303.5
2268.74	2276.5
2267.13	2268
2265.52	2289.5
2263.92	2192
2262.31	2199
2260.7	2235
2259.1	2235.5
2257.49	2153
2255.88	2184
2254.27	2184
2252.66	2214.5
2251.05	2145.5
2249.44	2168
2247.83	2170
2246.22	2166
2244.61	2182
2243	2151
2241.39	2153.5
2239.77	2090
2238.16	2161
2236.55	2094.5
2234.93	2104.5
2233.32	2097
2231.7	2085
2230.09	2097
2228.47	2123
2226.86	2101
2225.24	2027
2223.63	2089.5
2222.01	2082
2220.39	2014
2218.77	2073.5
2217.16	2048.5
2215.54	2044.5
2213.92	2041
2212.3	2009
2210.68	1956.5
2209.06	2008
2207.44	2006
2205.82	1960.5
2204.19	2020
2202.57	1961
2200.95	1984
2199.33	1989
2197.7	1971
2196.08	1940.5
2194.46	1998.5
2192.83	1940
2191.21	1932
2189.58	1928.5
2187.96	1931.5
2186.33	1897
2184.7	1922.5
2183.08	1920
2181.45	1896.5
2179.82	1872.5
2178.19	1898.5
2176.57	1849
2174.94	1905
2173.31	1860
2171.68	1890.5
2170.05	1811
2168.42	1870
2166.79	1871
2165.16	1871.5
2163.52	1816.5
2161.89	1827
2160.26	1833.5
2158.63	1843
2156.99	1818
2155.36	1793.5
2153.73	1771
2152.09	1813.5
2150.46	1784
2148.82	1802.5
2147.18	1776.5
2145.55	1802
2143.91	1766.5
2142.27	1785
2140.64	1785.5
2139	1740.5
2137.36	1726.5
2135.72	1747.5
2134.08	1735
2132.44	1712
2130.8	1696.5
2129.16	1675.5
2127.52	1671.5
2125.88	1686
2124.24	1672.5
2122.6	1662.5
2120.95	1651.5
2119.31	1618
2117.67	1624.5
2116.02	1607
2114.38	1620
2112.74	1611
2111.09	1555
2109.45	1622
2107.8	1641
2106.15	1603
2104.51	1539
2102.86	1550.5
2101.21	1558
2099.56	1581
2097.92	1536
2096.27	1561.5
2094.62	1500
2092.97	1533.5
2091.32	1522.5
2089.67	1540.5
2088.02	1487.5
2086.37	1512
2084.72	1499
2083.06	1537
2081.41	1504.5
2079.76	1484
2078.1	1470
2076.45	1493
2074.8	1438
2073.14	1480
2071.49	1412
2069.83	1489.5
2068.18	1455.5
2066.52	1468.5
2064.86	1465
2063.21	1473
2061.55	1429.5
2059.89	1427.5
2058.23	1446
2056.57	1453
2054.92	1479
2053.26	1435.5
2051.6	1446
2049.94	1437.5
2048.27	1437.5
2046.61	1393.5
2044.95	1489.5
2043.29	1414.5
2041.63	1423.5
2039.97	1406.5
2038.3	1389
2036.64	1396
2034.97	1397
2033.31	1393.5
2031.64	1367.5
2029.98	1373
2028.31	1386.5
2026.65	1357.5
2024.98	1373
2023.31	1330.5
2021.65	1384
2019.98	1337
2018.31	1320.5
2016.64	1314.5
2014.97	1355
2013.3	1307
2011.63	1303
2009.96	1281
2008.29	1307
2006.62	1275
2004.95	1272
2003.28	1272
2001.6	1299
1999.93	1279
1998.26	1270.5
1996.58	1252
1994.91	1261.5
1993.24	1260.5
1991.56	1263
1989.89	1213
1988.21	1256
1986.53	1250.5
1984.86	1240
1983.18	1227.5
1981.5	1214
1979.82	1181.5
1978.15	1234
1976.47	1192
1974.79	1226.5
1973.11	1201.5
1971.43	1158.5
1969.75	1188
1968.07	1187
1966.38	1189
1964.7	1168
1963.02	1199
1961.34	1165.5
1959.66	1199
1957.97	1152.5
1956.29	1153
1954.6	1185
1952.92	1187.5
1951.23	1150.5
1949.55	1104
1947.86	1140
1946.18	1133.5
1944.49	1130.5
1942.8	1139.5
1941.11	1115.5
1939.43	1148
1937.74	1102
1936.05	1107
1934.36	1122
1932.67	1116.5
1930.98	1071
1929.29	1112.5
1927.6	1061.5
1925.91	1075.5
1924.21	1050.5
1922.52	1070
1920.83	980
1919.14	1059.5
1917.44	1018
1915.75	1040
1914.05	1049
1912.36	1030
1910.66	1004
1908.97	1048
1907.27	1018
1905.58	1003.5
1903.88	1004
1902.18	1046.5
1900.48	1001
1898.79	996
1897.09	983
1895.39	1007.5
1893.69	989.5
1891.99	959
1890.29	952
1888.59	1000
1886.89	943.5
1885.18	970
1883.48	931.5
1881.78	942
1880.08	941.5
1878.37	909
1876.67	939
1874.96	902
1873.26	907.5
1871.55	889.5
1869.85	903.5
1868.14	897
1866.44	907
1864.73	927
1863.02	894
1861.32	859
1859.61	885
1857.9	881
1856.19	858.5
1854.48	903.5
1852.77	822
1851.06	830
1849.35	887
1847.64	860
1845.93	824
1844.21	890
1842.5	857.5
1840.79	853.5
1839.08	831
1837.36	836.5
1835.65	832
1833.93	797
1832.22	843
1830.5	821.5
1828.79	808.5
1827.07	866.5
1825.36	807
1823.64	801
1821.92	801
1820.2	781
1818.48	810
1816.77	770
1815.05	773
1813.33	783.5
1811.61	820.5
1809.89	755.5
1808.16	784.5
1806.44	755
1804.72	760
1803	755
1801.28	727
1799.55	725.5
1797.83	777
1796.11	790
1794.38	770.5
1792.66	767.5
1790.93	721
1789.21	741
1787.48	756
1785.75	741
1784.03	727.5
1782.3	712
1780.57	711.5
1778.84	714
1777.11	740
1775.38	705.5
1773.66	739.5
1771.93	701
1770.19	696
1768.46	707.5
1766.73	709
1765	742.5
1763.27	723
1761.54	735
1759.8	715.5
1758.07	722.5
1756.34	730
1754.6	731
1752.87	734.5
1751.13	746
1749.4	733
1747.66	671
1745.92	737
1744.19	711
1742.45	702
1740.71	722
1738.97	700
1737.23	725.5
1735.49	684
1733.75	673
1732.01	710.5
1730.27	701.5
1728.53	653.5
1726.79	655
1725.05	655.5
1723.31	652.5
1721.57	673.5
1719.82	625
1718.08	651.5
1716.34	645.5
1714.59	640
1712.85	619
1711.1	671
1709.36	658
1707.61	633
1705.86	662.5
1704.12	633
1702.37	637.5
1700.62	627.5
1698.87	638.5
1697.12	646
1695.37	571
1693.62	606
1691.87	639
1690.12	600
1688.37	626
1686.62	587
1684.87	579.5
1683.12	575
1681.36	586
1679.61	588
1677.86	620.5
1676.1	614.5
1674.35	609.5
1672.59	593.5
1670.84	625
1669.08	632.5
1667.33	654.5
1665.57	655
1663.81	667.5
1662.06	709
1660.3	739
1658.54	725
1656.78	715
1655.02	766
1653.26	729.5
1651.5	677
1649.74	654
1647.98	639.5
1646.22	618
1644.46	584.5
1642.7	606
1640.93	594.5
1639.17	573
1637.41	567.5
1635.64	535.5
1633.88	537
1632.11	542.5
1630.35	519
1628.58	485
1626.81	535.5
1625.05	543.5
1623.28	540
1621.51	539.5
1619.75	513
1617.98	529.5
1616.21	500
1614.44	512.5
1612.67	499
1610.9	511
1609.13	517.5
1607.36	503
1605.58	508
1603.81	505
1602.04	510
1600.27	462
1598.49	506.5
1596.72	523
1594.95	491.5
1593.17	479
1591.4	525
1589.62	474
1587.84	518
1586.07	511.5
1584.29	479
1582.51	503
1580.74	496.5
1578.96	505
1577.18	487.5
1575.4	501
1573.62	450
1571.84	477.5
1570.06	465
1568.28	472.5
1566.5	481
1564.72	475
1562.93	485
1561.15	463
1559.37	486
1557.58	451
1555.8	479.5
1554.02	445.5
1552.23	470
1550.45	484
1548.66	442
1546.87	455
1545.09	415
1543.3	435
1541.51	440.5
1539.72	456.5
1537.94	464.5
1536.15	423
1534.36	433.5
1532.57	430
1530.78	434
1528.99	415
1527.2	441.5
1525.4	422.5
1523.61	423
1521.82	428.5
1520.03	404.5
1518.23	399
1516.44	402
1514.65	429.5
1512.85	436.5
1511.06	444
1509.26	465.5
1507.46	415
1505.67	458
1503.87	425
1502.07	464
1500.28	452.5
1498.48	440
1496.68	431
1494.88	415.5
1493.08	420
1491.28	483.5
1489.48	434.5
1487.68	415
1485.88	446.5
1484.08	478.5
1482.27	469.5
1480.47	447
1478.67	511.5
1476.86	486.5
1475.06	541
1473.25	541
1471.45	579.5
1469.64	572.5
1467.84	630
1466.03	647.5
1464.23	682.5
1462.42	702.5
1460.61	709
1458.8	765
1456.99	738.5
1455.18	773
1453.37	803
1451.56	797.5
1449.75	814
1447.94	819
1446.13	880.5
1444.32	897
1442.51	923
1440.7	908
1438.88	891
1437.07	861
1435.26	801.5
1433.44	753
1431.63	692.5
1429.81	623
1427.99	575
1426.18	565
1424.36	533.5
1422.54	507.5
1420.73	479
1418.91	495.5
1417.09	472
1415.27	449
1413.45	450.5
1411.63	392
1409.81	446.5
1407.99	432.5
1406.17	395
1404.35	410
1402.53	398
1400.7	385
1398.88	429
1397.06	364
1395.23	383.5
1393.41	407.5
1391.58	390.5
1389.76	342
1387.93	391.5
1386.11	391.5
1384.28	382
1382.45	401.5
1380.62	362
1378.8	375
1376.97	399.5
1375.14	395
1373.31	397.5
1371.48	410
1369.65	423
1367.82	405.5
1365.99	379.5
1364.16	372
1362.32	374
1360.49	393
1358.66	395
1356.82	360
1354.99	372
1353.16	354.5
1351.32	341
1349.48	389
1347.65	362
1345.81	399
1343.98	356
1342.14	414
1340.3	368
1338.46	373
1336.62	402
1334.79	389.5
1332.95	400.5
1331.11	392
1329.27	403.5
1327.42	449
1325.58	446.5
1323.74	395
1321.9	468
1320.06	492.5
1318.21	509.5
1316.37	512.5
1314.53	546
1312.68	544.5
1310.84	563
1308.99	603
1307.15	623.5
1305.3	653
1303.45	674.5
1301.61	703
1299.76	652
1297.91	664.5
1296.06	606
1294.21	618
1292.36	550.5
1290.51	532
1288.66	507
1286.81	492.5
1284.96	465
1283.11	470.5
1281.26	489
1279.4	490
1277.55	458
1275.7	462.5
1273.84	498.5
1271.99	487
1270.13	503
1268.28	471
1266.42	475
1264.56	496
1262.71	459.5
1260.85	459
1258.99	439.5
1257.13	428.5
1255.27	462
1253.41	423
1251.56	414.5
1249.7	366
1247.83	387
1245.97	388.5
1244.11	372
1242.25	347
1240.39	360.5
1238.52	343.5
1236.66	335
1234.8	326.5
1232.93	309.5
1231.07	299
1229.2	273
1227.34	313.5
1225.47	318
1223.6	311
1221.74	296.5
1219.87	282
1218	306.5
1216.13	294
1214.26	310.5
1212.39	302
1210.53	321
1208.65	294.5
1206.78	302
1204.91	274.5
1203.04	306.5
1201.17	291
1199.3	303.5
1197.42	286.5
1195.55	328.5
1193.68	299
1191.8	274.5
1189.93	290
1188.05	311
1186.17	277
1184.3	283
1182.42	301
1180.54	299
1178.67	299
1176.79	258
1174.91	285
1173.03	301
1171.15	314
1169.27	287
1167.39	305.5
1165.51	286.5
1163.63	273
1161.75	312
1159.86	311.5
1157.98	288
1156.1	315
1154.21	302.5
1152.33	298.5
1150.44	333.5
1148.56	308
1146.67	294
1144.79	309
1142.9	281.5
1141.01	287.5
1139.12	284.5
1137.24	344
1135.35	336
1133.46	330
1131.57	368.5
1129.68	385
1127.79	370.5
1125.9	392
1124.01	369.5
1122.12	365
1120.22	375.5
1118.33	371
1116.44	313
1114.54	377
1112.65	377.5
1110.75	357.5
1108.86	325
1106.96	343
1105.07	346.5
1103.17	384.5
1101.27	389
1099.38	417.5
1097.48	442.5
1095.58	445.5
1093.68	458.5
1091.78	484
1089.88	484
1087.98	459
1086.08	488.5
1084.18	492.5
1082.28	517.5
1080.38	508
1078.47	493.5
1076.57	488.5
1074.67	475
1072.76	494.5
1070.86	499.5
1068.95	524
1067.05	512.5
1065.14	522.5
1063.24	504.5
1061.33	468.5
1059.42	436
1057.51	408.5
1055.6	373.5
1053.7	406.5
1051.79	378
1049.88	373
1047.97	384
1046.06	344.5
1044.14	360
1042.23	347.5
1040.32	341
1038.41	338
1036.5	360
1034.58	358
1032.67	367
1030.75	372
1028.84	343
1026.92	371
1025.01	345
1023.09	366
1021.17	346
1019.26	351
1017.34	345.5
1015.42	354
1013.5	354
1011.58	319.5
1009.66	346
1007.74	350.5
1005.82	372
1003.9	303
1001.98	332.5
1000.06	334
998.134	307
996.212	366.5
994.288	359.5
992.364	363.5
990.44	387
988.515	369.5
986.589	383
984.663	433.5
982.737	444
980.81	406
978.883	428.5
976.955	459
975.027	438
973.098	472.5
971.169	452
969.239	460
967.308	476
965.378	461
963.447	471.5
961.516	493
959.583	495
957.65	480
955.718	485
953.784	465
951.85	497
949.916	495
947.981	491
946.045	493
944.109	510
942.173	520.5
940.236	529.5
938.298	525
936.36	515.5
934.422	469.5
932.484	480
930.544	447
928.604	416
926.664	404.5
924.724	411.5
922.782	391
920.84	418
918.898	394.5
916.955	385.5
915.012	356.5
913.068	400.5
911.124	367
909.18	387
907.235	384.5
905.289	413.5
903.343	385
901.397	385
899.45	404
897.502	391.5
895.554	379
893.605	427.5
891.657	435
889.707	438
887.758	416
885.807	449
883.856	431
881.905	379
879.953	417.5
878.001	438
876.048	478
874.094	423
872.14	418
870.186	432
868.232	451.5
866.276	427
864.321	427
862.365	440.5
860.408	406.5
858.451	435
856.493	426.5
854.535	428.5
852.576	397.5
850.617	432.5
848.658	413.5
846.698	449
844.737	404
842.776	415
840.814	416.5
838.852	398
836.89	399.5
834.927	379
832.963	394
830.999	348.5
829.035	370.5
827.07	353.5
825.105	351
823.139	325
821.172	331
819.206	348
817.238	300
815.27	319
813.301	326
811.333	308
809.363	283
807.394	285
805.424	275
803.453	264
801.482	272
799.509	269.5
797.538	281
795.565	274
793.592	285.5
791.618	290.5
789.643	271
787.669	272
785.693	256
783.718	198
781.742	268.5
779.765	236
777.788	257
775.811	263.5
773.832	253.5
771.853	246.5
769.875	249.5
767.895	253
765.915	261.5
763.934	259
761.953	242
759.972	241
757.99	264
756.007	232
754.024	233
752.041	233
750.056	256
748.072	226
746.087	260
744.102	217
742.116	232.5
740.13	266.5
738.143	236.5
736.155	239
734.167	226
732.179	247.5
730.19	238
728.2	251
726.21	247
724.22	249
722.229	278
720.237	255.5
718.246	243
716.253	257.5
714.26	265
712.267	239.5
710.273	245
708.279	214
706.284	222.5
704.289	227
702.293	214.5
700.296	232
698.3	224
696.303	233
694.305	228
692.307	227.5
690.307	250
688.308	246.5
686.309	237
684.308	246.5
682.308	223
680.306	241
678.304	233
676.302	212.5
674.3	236.5
672.296	231
670.293	216
668.289	233
666.284	231
664.278	248
662.273	253
660.266	229
658.26	233
656.252	277
654.244	239.5
652.237	223
650.227	244.5
648.218	248.5
646.209	253
644.198	222
642.188	274.5
640.177	254
638.165	236
636.153	250
634.14	257
632.128	247.5
630.113	253
628.099	274
626.085	252.5
624.07	300
622.054	254
620.038	281.5
618.021	279.5
616.004	251.5
613.986	263
611.968	273
609.949	303
607.93	286
605.911	266
603.891	267.5
601.87	263
599.848	280
597.827	267
595.805	261
593.782	275
591.759	311
589.735	256.5
587.711	275
585.687	263.5
583.661	273.5
581.636	246
579.609	259.5
577.583	268.5
575.555	252.5
573.527	252.5
571.5	270.5
569.471	264.5
567.441	249.5
565.412	235.5
563.382	262
561.351	303
559.32	286
557.289	301.5
555.257	270.5
553.223	301.5
551.19	328
549.157	329
547.122	320.5
545.088	351.5
543.053	336
541.017	368
538.981	440
536.943	539
534.907	593
532.869	782
530.831	1078
528.792	1581
526.752	2464.5
524.713	3725.5
522.673	4713
520.632	4867.5
518.591	4108
516.549	3019
514.507	2036
512.464	1375
510.42	917
508.377	688
506.332	542.5
504.288	460
502.242	424
500.196	394.5
498.15	405
496.104	385.5
494.056	362
492.008	340
489.96	350
487.911	366
485.862	369
483.812	335.5
481.761	305.5
479.71	321.5
477.659	345.5
475.607	337
473.555	325.5
471.502	305.5
469.448	335.5
467.395	327
465.34	310
463.285	303
461.23	329.5
459.174	320
457.118	277
455.061	358
453.003	330.5
450.945	342.5
448.887	322
446.828	335
444.768	330.5
442.708	348.5
440.647	331
438.587	355
436.525	367.5
434.463	354.5
432.4	340
430.337	356.5
428.274	344
426.21	340
424.145	367
422.079	347.5
420.014	366
417.948	357.5
415.882	367
413.814	378
411.746	346
409.679	371.5
407.609	346
405.54	383.5
403.47	358
401.401	382.5
399.329	367
397.258	408
395.187	374
393.114	345.5
391.041	347
388.968	354.5
386.895	363
384.82	376
382.745	374
380.67	378
378.594	378
376.517	398.5
374.44	380
372.363	401
370.286	414
368.207	387.5
366.128	394.5
364.049	391
361.969	389.5
359.888	404.5
357.807	403.5
355.725	382.5
353.643	368
351.561	426.5
349.477	404.5
347.394	403.5
345.31	403.5
343.226	414.5
341.141	416.5
339.055	403
336.968	440
334.882	411
332.795	459
330.707	408
328.618	464
326.53	442
324.44	448.5
322.351	481.5
320.26	473
318.17	483
316.078	510
313.987	508
311.895	534.5
309.802	569
307.708	603
305.614	586
303.52	632
301.425	592
299.329	604
297.233	591
295.137	572
293.039	551.5
290.942	542.5
288.844	530
286.745	510.5
284.647	514
282.546	516
280.446	510
278.346	512.5
276.245	466.5
274.143	498.5
272.041	505.5
269.939	535
267.835	552
265.731	541.5
263.627	511
261.522	529.5
259.417	593.5
257.311	513
255.204	554
253.098	539
250.99	558
248.882	541
246.774	552.5
244.664	579
242.555	574.5
240.445	602.5
238.334	584.5
236.223	599.5
234.112	625.5
232	606.5
229.888	571
227.775	570.5
225.661	589
223.546	618
221.431	566
219.316	631
217.201	614.5
215.084	593
212.967	613
210.85	617
208.732	613
206.614	649.5
204.495	632
202.375	643
200.256	642.5
198.135	639
196.014	601.5
193.893	642
191.771	647.5
189.648	644
187.525	647.5
185.401	648
183.277	669
181.152	672
179.027	654
176.901	654.5
174.775	679
172.648	669
170.521	674
168.393	697
166.265	714
164.136	745
162.007	737
159.876	727.5
157.746	778.5
155.615	794
153.483	758
151.351	823.5
149.219	837
147.086	820.5
144.952	880.5
142.818	876.5
140.684	935.5
138.548	949
136.413	985
134.276	994
132.139	1051.5
130.002	1094.5
127.864	1111
125.725	1118.5
123.587	1188
121.447	1221
119.307	1287
117.166	1299
115.026	1385.5
112.885	1409
110.743	1491.5
108.6	1542.5
106.456	1546.5
104.313	1539.5
102.169	1540
100.023	1521.5
97.8789	1474
95.7328	1318
93.5869	1170
91.4392	994
89.2919	818.5
87.1447	697.5
84.9959	565.5
