3528.51	121
3527.23	149
3525.95	175
3524.67	152
3523.39	184.5
3522.1	166
3520.82	148
3519.54	172.5
3518.26	191.5
3516.97	150
3515.69	143
3514.4	152
3513.12	175
3511.84	186
3510.55	163
3509.26	172.5
3507.98	166
3506.69	175
3505.41	166
3504.12	145
3502.83	176
3501.54	166
3500.26	144
3498.97	180
3497.68	181
3496.39	217
3495.1	157.5
3493.81	205
3492.52	175.5
3491.23	171
3489.94	186
3488.65	182.5
3487.36	194.5
3486.07	194
3484.78	207.5
3483.49	194.5
3482.19	231.5
3480.9	181
3479.61	227
3478.31	233.5
3477.02	210.5
3475.73	214.5
3474.43	219
3473.14	224.5
3471.84	230.5
3470.54	227
3469.25	219.5
3467.95	231
3466.66	209
3465.36	231
3464.06	244.5
3462.76	267
3461.46	201
3460.17	217
3458.87	238
3457.57	237
3456.27	217.5
3454.97	226
3453.67	267.5
3452.37	235.5
3451.07	240.5
3449.77	245.5
3448.47	272
3447.16	252.5
3445.86	253
3444.56	294
3443.26	271
3441.95	269
3440.65	260
3439.35	313
3438.04	267.5
3436.74	300
3435.43	285
3434.13	306.5
3432.82	314.5
3431.52	304.5
3430.21	320
3428.9	308
3427.6	342
3426.29	311
3424.98	326
3423.67	340
3422.36	352
3421.06	319
3419.75	340
3418.44	357.5
3417.13	350
3415.82	358
3414.51	362.5
3413.2	398.5
3411.88	362
3410.57	379.5
3409.26	392
3407.95	358
3406.64	374
3405.32	421
3404.01	387
3402.7	394
3401.38	410.5
3400.07	428.5
3398.75	432.5
3397.44	379
3396.12	416.5
3394.81	396
3393.49	429
3392.18	426.5
3390.86	395
3389.54	420.5
3388.23	450
3386.91	449
3385.59	465
3384.27	433
3382.95	440
3381.63	447
3380.31	396
3378.99	467
3377.67	457
3376.35	464
3375.03	455
3373.71	501
3372.39	474.5
3371.07	472.5
3369.75	477
3368.42	488.5
3367.1	474.5
3365.78	514
3364.45	508
3363.13	516.5
3361.81	504
3360.48	477
3359.16	509.5
3357.83	537
3356.51	504
3355.18	509
3353.85	531
3352.53	543.5
3351.2	531.5
3349.87	534
3348.54	548.5
3347.22	484
3345.89	495
3344.56	562
3343.23	556
3341.9	549
3340.57	538
3339.24	537
3337.91	524
3336.58	560
3335.25	522
3333.92	574
3332.58	529.5
3331.25	552.5
3329.92	571.5
3328.59	587
3327.25	579
3325.92	550
3324.58	570
3323.25	579.5
3321.92	568
3320.58	583
3319.25	583
3317.91	615
3316.57	572
3315.24	580
3313.9	589
3312.56	570
3311.23	583
3309.89	605.5
3308.55	599.5
3307.21	566
3305.87	644
3304.53	600
3303.19	592.5
3301.85	613
3300.51	627
3299.17	616.5
3297.83	621
3296.49	628.5
3295.15	616
3293.81	623
3292.46	626
3291.12	628
3289.78	640
3288.43	659.5
3287.09	653.5
3285.75	625
3284.4	643
3283.06	689
3281.71	636
3280.37	661.5
3279.02	646.5
3277.67	661
3276.33	630
3274.98	677
3273.63	631
3272.28	674.5
3270.94	655.5
3269.59	655
3268.24	709
3266.89	664
3265.54	676.5
3264.19	683
3262.84	706.5
3261.49	716.5
3260.14	700
3258.79	709.5
3257.44	706
3256.08	754.5
3254.73	755
3253.38	753
3252.03	752
3250.67	758
3249.32	786.5
3247.96	807
3246.61	780
3245.26	846.5
3243.9	860.5
3242.54	866.5
3241.19	899
3239.83	890
3238.48	937.5
3237.12	982.5
3235.76	961.5
3234.41	1033
3233.05	1007
3231.69	1087
3230.33	1041
3228.97	1102.5
3227.61	1117.5
3226.25	1152
3224.89	1183
3223.53	1209
3222.17	1264
3220.81	1265
3219.45	1320
3218.09	1316
3216.72	1335.5
3215.36	1392
3214	1345.5
3212.63	1368.5
3211.27	1454.5
3209.91	1397
3208.54	1469
3207.18	1437
3205.81	1444
3204.45	1435.5
3203.08	1469.5
3201.71	1503.5
3200.35	1494
3198.98	1520.5
3197.61	1497.5
3196.25	1513
3194.88	1536
3193.51	1556
3192.14	1575
3190.77	1596.5
3189.4	1577.5
3188.03	1542.5
3186.66	1583.5
3185.29	1591
3183.92	1587.5
3182.55	1558
3181.18	1627
3179.81	1591
3178.44	1639
3177.06	1611
3175.69	1649
3174.32	1662.5
3172.94	1663.5
3171.57	1688.5
3170.2	1681.5
3168.82	1705
3167.45	1713.5
3166.07	1725
3164.69	1741.5
3163.32	1790.5
3161.94	1769
3160.56	1773.5
3159.19	1800.5
3157.81	1804.5
3156.43	1811
3155.05	1821
3153.67	1783
3152.3	1882
3150.92	1902.5
3149.54	1891
3148.16	1910.5
3146.78	1931
3145.4	1934.5
3144.01	1955.5
3142.63	1949.5
3141.25	1913
3139.87	1999
3138.49	2001.5
3137.1	2034.5
3135.72	2049.5
3134.34	2082.5
3132.95	1990.5
3131.57	2074
3130.18	2090
3128.8	2112
3127.41	2097
3126.03	2118.5
3124.64	2155
3123.25	2142.5
3121.87	2163
3120.48	2182.5
3119.09	2170.5
3117.7	2186
3116.32	2152
3114.93	2188.5
3113.54	2231
3112.15	2267.5
3110.76	2285
3109.37	2226.5
3107.98	2273
3106.59	2265
3105.2	2266.5
3103.8	2304
3102.41	2367.5
3101.02	2332.5
3099.63	2320.5
3098.23	2328.5
3096.84	2351
3095.45	2352.5
3094.05	2375
3092.66	2371.5
3091.26	2355.5
3089.87	2352.5
3088.47	2381
3087.08	2431.5
3085.68	2427.5
3084.28	2406
3082.89	2437.5
3081.49	2392.5
3080.09	2393.5
3078.69	2427.5
3077.3	2426.5
3075.9	2480
3074.5	2474
3073.1	2483
3071.7	2497
3070.3	2492
3068.9	2483.5
3067.5	2460.5
3066.09	2506.5
3064.69	2524
3063.29	2498.5
3061.89	2545.5
3060.48	2555
3059.08	2562.5
3057.68	2557.5
3056.27	2529
3054.87	2544
3053.46	2499
3052.06	2502
3050.65	2544
3049.25	2593.5
3047.84	2596
3046.44	2668
3045.03	2585.5
3043.62	2577.5
3042.21	2632.5
3040.81	2641
3039.4	2600
3037.99	2599.5
3036.58	2640
3035.17	2648.5
3033.76	2637.5
3032.35	2673
3030.94	2649
3029.53	2726.5
3028.12	2726
3026.71	2672
3025.29	2683.5
3023.88	2711.5
3022.47	2709.5
3021.06	2724
3019.64	2666
3018.23	2667.5
3016.82	2692
3015.4	2733
3013.99	2670
3012.57	2741.5
3011.15	2712.5
3009.74	2788.5
3008.32	2779
3006.91	2771
3005.49	2779
3004.07	2808.5
3002.65	2763
3001.24	2821.5
2999.82	2787.5
2998.4	2790.5
2996.98	2825
2995.56	2836.5
2994.14	2862
2992.72	2831.5
2991.3	2875.5
2989.88	2875
2988.46	2919
2987.03	2912
2985.61	2914
2984.19	2900
2982.77	2899.5
2981.34	3013.5
2979.92	2979.5
2978.49	3026.5
2977.07	3040.5
2975.65	3047.5
2974.22	3089
2972.79	3018
2971.37	3128
2969.94	3090
2968.52	3184
2967.09	3158.5
2965.66	3125.5
2964.23	3124.5
2962.81	3130.5
2961.38	3221.5
2959.95	3238.5
2958.52	3207
2957.09	3182
2955.66	3217.5
2954.23	3235
2952.8	3254.5
2951.37	3202
2949.94	3221.5
2948.5	3226.5
2947.07	3277
2945.64	3217.5
2944.21	3301
2942.77	3327
2941.34	3327
2939.91	3362.5
2938.47	3389
2937.04	3404
2935.6	3413.5
2934.17	3396.5
2932.73	3405.5
2931.29	3443
2929.86	3395
2928.42	3422
2926.98	3457.5
2925.55	3495.5
2924.11	3497
2922.67	3534
2921.23	3528.5
2919.79	3506
2918.35	3498.5
2916.91	3528
2915.47	3550.5
2914.03	3621
2912.59	3554.5
2911.15	3525.5
2909.71	3546.5
2908.26	3583.5
2906.82	3559.5
2905.38	3586
2903.94	3643
2902.49	3637.5
2901.05	3571.5
2899.6	3689.5
2898.16	3612.5
2896.71	3623.5
2895.27	3641.5
2893.82	3633.5
2892.38	3669
2890.93	3699.5
2889.48	3687
2888.03	3608
2886.59	3660.5
2885.14	3624.5
2883.69	3644
2882.24	3632.5
2880.79	3676.5
2879.34	3679
2877.89	3710.5
2876.44	3689
2874.99	3655
2873.54	3663.5
2872.09	3701.5
2870.64	3619
2869.18	3666.5
2867.73	3718.5
2866.28	3686
2864.83	3676
2863.37	3692
2861.92	3701
2860.46	3692.5
2859.01	3659
2857.55	3714.5
2856.1	3710
2854.64	3722
2853.19	3737.5
2851.73	3727.5
2850.27	3671
2848.81	3723
2847.36	3619.5
2845.9	3725
2844.44	3670.5
2842.98	3706
2841.52	3700
2840.06	3635
2838.6	3606
2837.14	3556
2835.68	3571
2834.22	3615
2832.76	3586.5
2831.3	3522.5
2829.83	3577
2828.37	3550.5
2826.91	3523
2825.44	3507.5
2823.98	3462.5
2822.52	3507
2821.05	3506
2819.59	3540
2818.12	3445
2816.66	3459.5
2815.19	3442
2813.72	3402
2812.26	3428.5
2810.79	3432.5
2809.32	3465
2807.85	3398
2806.38	3390
2804.92	3340
2803.45	3312.5
2801.98	3397
2800.51	3371.5
2799.04	3365.5
2797.57	3370
2796.1	3336
2794.62	3308.5
2793.15	3287.5
2791.68	3328
2790.21	3323
2788.73	3352.5
2787.26	3347
2785.79	3328
2784.31	3366.5
2782.84	3341.5
2781.36	3341
2779.89	3359
2778.41	3327.5
2776.94	3323
2775.46	3325.5
2773.99	3263
2772.51	3369
2771.03	3339.5
2769.55	3311
2768.07	3401.5
2766.6	3341
2765.12	3363
2763.64	3313.5
2762.16	3310
2760.68	3350.5
2759.2	3332
2757.72	3291.5
2756.24	3371
2754.75	3349
2753.27	3361.5
2751.79	3298
2750.31	3334.5
2748.82	3307
2747.34	3211.5
2745.86	3212
2744.37	3300
2742.89	3346.5
2741.4	3336
2739.92	3326
2738.43	3338
2736.94	3321.5
2735.46	3246
2733.97	3286.5
2732.48	3298
2731	3326
2729.51	3332
2728.02	3340.5
2726.53	3331.5
2725.04	3304.5
2723.55	3299.5
2722.06	3313
2720.57	3318.5
2719.08	3315
2717.59	3255.5
2716.1	3409
2714.61	3293.5
2713.11	3341.5
2711.62	3359
2710.13	3301
2708.64	3288.5
2707.14	3324
2705.65	3228.5
2704.15	3288.5
2702.66	3246.5
2701.16	3236.5
2699.67	3271.5
2698.17	3204.5
2696.67	3246.5
2695.18	3226.5
2693.68	3177.5
2692.18	3236.5
2690.69	3216
2689.19	3230.5
2687.69	3164
2686.19	3174.5
2684.69	3108.5
2683.19	3156.5
2681.69	3164.5
2680.19	3166
2678.69	3196
2677.19	3176.5
2675.68	3177.5
2674.18	3223
2672.68	3191.5
2671.18	3146.5
2669.67	3136.5
2668.17	3123
2666.66	3104
2665.16	3192
2663.66	3148
2662.15	3160
2660.64	3133
2659.14	3140
2657.63	3109.5
2656.13	3155
2654.62	3088.5
2653.11	3139.5
2651.6	3093
2650.09	3111
2648.58	3101
2647.08	3080.5
2645.57	3107.5
2644.06	3134
2642.55	3136
2641.04	3057
2639.52	3083
2638.01	3082
2636.5	3071.5
2634.99	3077.5
2633.48	3051.5
2631.96	3046.5
2630.45	3057
2628.94	3028
2627.42	3023
2625.91	3068
2624.39	3018.5
2622.88	3038
2621.36	2982.5
2619.85	3023
2618.33	3030
2616.81	2991
2615.3	3003.5
2613.78	2958.5
2612.26	3036
2610.74	3013
2609.22	2980
2607.7	2921.5
2606.18	2957
2604.66	2965
2603.14	2885.5
2601.62	2922
2600.1	2876.5
2598.58	2934
2597.06	2927.5
2595.54	2901.5
2594.01	2885.5
2592.49	2911
2590.97	2901
2589.44	2885
2587.92	2856.5
2586.39	2878.5
2584.87	2920
2583.34	2856.5
2581.82	2835.5
2580.29	2885.5
2578.76	2797
2577.24	2833.5
2575.71	2881.5
2574.18	2821
2572.65	2824
2571.13	2831.5
2569.6	2806
2568.07	2795.5
2566.54	2781
2565.01	2792
2563.48	2820
2561.95	2790
2560.42	2816.5
2558.88	2749.5
2557.35	2790
2555.82	2792.5
2554.29	2685
2552.75	2713.5
2551.22	2729
2549.69	2723
2548.15	2696
2546.62	2694.5
2545.08	2685.5
2543.55	2736
2542.01	2710
2540.47	2721.5
2538.94	2756.5
2537.4	2721
2535.86	2697.5
2534.33	2708.5
2532.79	2637.5
2531.25	2690.5
2529.71	2642.5
2528.17	2695
2526.63	2645
2525.09	2615
2523.55	2636
2522.01	2654
2520.47	2578
2518.92	2605
2517.38	2658
2515.84	2582.5
2514.3	2603
2512.75	2592.5
2511.21	2577.5
2509.67	2596
2508.12	2592.5
2506.58	2505
2505.03	2530.5
2503.49	2515
2501.94	2549
2500.39	2535
2498.85	2497.5
2497.3	2465
2495.75	2462
2494.2	2488.5
2492.65	2442.5
2491.11	2478
2489.56	2467
2488.01	2429
2486.46	2481.5
2484.91	2403
2483.36	2432.5
2481.8	2439
2480.25	2418
2478.7	2449
2477.15	2377
2475.6	2361
2474.04	2397
2472.49	2348
2470.93	2403.5
2469.38	2402.5
2467.83	2344
2466.27	2371
2464.71	2357.5
2463.16	2324
2461.6	2309
2460.05	2290
2458.49	2282.5
2456.93	2312
2455.37	2327.5
2453.81	2282.5
2452.26	2289.5
2450.7	2260
2449.14	2244.5
2447.58	2237
2446.02	2259
2444.46	2266.5
2442.9	2230.5
2441.33	2225
2439.77	2226
2438.21	2234.5
2436.65	2169.5
2435.08	2188.5
2433.52	2168.5
2431.96	2183
2430.39	2145
2428.83	2142
2427.26	2166.5
2425.7	2162.5
2424.13	2145.5
2422.56	2167
2421	2166.5
2419.43	2110
2417.86	2085.5
2416.3	2109
2414.73	2105
2413.16	2087.5
2411.59	2085
2410.02	2048
2408.45	2110.5
2406.88	2090
2405.31	2094.5
2403.74	2075
2402.17	2097.5
2400.6	2115.5
2399.02	2077
2397.45	2048.5
2395.88	1987.5
2394.3	2004.5
2392.73	2063
2391.16	2051.5
2389.58	2003.5
2388.01	2048.5
2386.43	1998
2384.86	2019.5
2383.28	2001.5
2381.7	1996
2380.13	1971
2378.55	1971
2376.97	1998.5
2375.39	1993
2373.81	1966
2372.23	1969
2370.65	1952.5
2369.07	1996.5
2367.49	1968.5
2365.91	1955
2364.33	1975
2362.75	1950
2361.17	1925
2359.59	1960.5
2358.01	1975
2356.42	1936
2354.84	1969
2353.25	1922
2351.67	1877.5
2350.09	1902
2348.5	1897
2346.92	1898
2345.33	1877.5
2343.74	1931
2342.16	1895.5
2340.57	1888
2338.98	1897.5
2337.39	1868.5
2335.81	1862.5
2334.22	1903.5
2332.63	1888.5
2331.04	1862.5
2329.45	1864.5
2327.86	1861.5
2326.27	1894
2324.68	1854.5
2323.09	1851
2321.49	1863
2319.9	1841.5
2318.31	1819
2316.72	1805.5
2315.12	1849
2313.53	1818
2311.93	1796.5
2310.34	1853.5
2308.74	1814.5
2307.15	1840.5
2305.55	1779
2303.96	1754.5
2302.36	1767
2300.76	1752.5
2299.17	1812.5
2297.57	1772
2295.97	1774
2294.37	1783
2292.77	1735
2291.17	1745.5
2289.57	1727
2287.97	1729.5
2286.37	1711
2284.77	1724
2283.17	1738
2281.57	1746.5
2279.96	1734.5
2278.36	1756
2276.76	1706
2275.15	1705
2273.55	1687
2271.95	1644
2270.34	1670
2268.74	1666
2267.13	1655.5
2265.52	1673
2263.92	1621
2262.31	1641
2260.7	1584.5
2259.1	1659.5
2257.49	1577
2255.88	1601.5
2254.27	1602
2252.66	1634
2251.05	1593.5
2249.44	1555
2247.83	1625.5
2246.22	1582.5
2244.61	1579.5
2243	1568
2241.39	1561.5
2239.77	1532
2238.16	1544.5
2236.55	1578
2234.93	1496.5
2233.32	1537
2231.7	1501.5
2230.09	1506
2228.47	1521
2226.86	1481
2225.24	1507.5
2223.63	1552.5
2222.01	1514
2220.39	1474
2218.77	1484.5
2217.16	1456.5
2215.54	1455
2213.92	1483
2212.3	1483
2210.68	1444
2209.06	1448.5
2207.44	1425.5
2205.82	1423
2204.19	1395.5
2202.57	1416.5
2200.95	1420.5
2199.33	1440.5
2197.7	1392
2196.08	1388.5
2194.46	1405.5
2192.83	1422.5
2191.21	1387
2189.58	1392.5
2187.96	1391.5
2186.33	1360.5
2184.7	1372.5
2183.08	1343
2181.45	1389.5
2179.82	1381
2178.19	1350.5
2176.57	1400.5
2174.94	1349
2173.31	1352.5
2171.68	1342.5
2170.05	1341
2168.42	1340.5
2166.79	1326
2165.16	1315.5
2163.52	1354
2161.89	1314.5
2160.26	1346
2158.63	1319
2156.99	1346.5
2155.36	1305.5
2153.73	1303
2152.09	1316
2150.46	1289.5
2148.82	1297
2147.18	1278
2145.55	1225
2143.91	1267.5
2142.27	1257
2140.64	1281
2139	1266
2137.36	1252
2135.72	1244
2134.08	1268.5
2132.44	1247.5
2130.8	1231.5
2129.16	1213.5
2127.52	1227
2125.88	1233.5
2124.24	1203.5
2122.6	1180
2120.95	1189
2119.31	1173.5
2117.67	1160
2116.02	1177.5
2114.38	1153
2112.74	1166
2111.09	1143.5
2109.45	1176.5
2107.8	1161.5
2106.15	1127
2104.51	1134
2102.86	1143.5
2101.21	1105.5
2099.56	1101.5
2097.92	1116
2096.27	1095.5
2094.62	1099.5
2092.97	1084.5
2091.32	1099.5
2089.67	1131
2088.02	1122.5
2086.37	1083
2084.72	1109.5
2083.06	1100
2081.41	1115
2079.76	1084
2078.1	1071.5
2076.45	1080
2074.8	1047
2073.14	1084.5
2071.49	1076.5
2069.83	1058
2068.18	1046
2066.52	1063
2064.86	1044.5
2063.21	1023
2061.55	1068.5
2059.89	1019
2058.23	1032.5
2056.57	1039
2054.92	1029
2053.26	1019.5
2051.6	1066.5
2049.94	1045.5
2048.27	1037.5
2046.61	1033
2044.95	1015
2043.29	1017
2041.63	1037.5
2039.97	1013
2038.3	1015.5
2036.64	980
2034.97	1007.5
2033.31	994.5
2031.64	971.5
2029.98	970.5
2028.31	957
2026.65	999.5
2024.98	995
2023.31	962.5
2021.65	979.5
2019.98	962
2018.31	954
2016.64	963.5
2014.97	977.5
2013.3	941
2011.63	964
2009.96	918.5
2008.29	923.5
2006.62	938
2004.95	919.5
2003.28	919.5
2001.6	906
1999.93	904.5
1998.26	871
1996.58	914
1994.91	881
1993.24	894.5
1991.56	880.5
1989.89	864
1988.21	896.5
1986.53	869
1984.86	880
1983.18	889.5
1981.5	884
1979.82	881
1978.15	856
1976.47	853.5
1974.79	850
1973.11	867.5
1971.43	860
1969.75	889.5
1968.07	865
1966.38	826
1964.7	883
1963.02	854
1961.34	873.5
1959.66	830.5
1957.97	875.5
1956.29	823.5
1954.6	832.5
1952.92	848.5
1951.23	841
1949.55	823
1947.86	841.5
1946.18	829
1944.49	846
1942.8	796.5
1941.11	809.5
1939.43	824.5
1937.74	811.5
1936.05	803.5
1934.36	804
1932.67	792.5
1930.98	765
1929.29	768.5
1927.6	791.5
1925.91	742
1924.21	741
1922.52	766.5
1920.83	764.5
1919.14	799
1917.44	773
1915.75	769
1914.05	748.5
1912.36	776
1910.66	746
1908.97	732
1907.27	718
1905.58	743
1903.88	738
1902.18	737
1900.48	739
1898.79	720
1897.09	744.5
1895.39	716
1893.69	722
1891.99	732
1890.29	685
1888.59	704.5
1886.89	693.5
1885.18	700.5
1883.48	711
1881.78	730
1880.08	665.5
1878.37	673.5
1876.67	686
1874.96	680.5
1873.26	687
1871.55	670.5
1869.85	632
1868.14	676
1866.44	672.5
1864.73	675
1863.02	628
1861.32	668
1859.61	659.5
1857.9	649
1856.19	624
1854.48	620
1852.77	634
1851.06	621.5
1849.35	654.5
1847.64	624
1845.93	594
1844.21	632.5
1842.5	626
1840.79	629
1839.08	604
1837.36	607
1835.65	617.5
1833.93	603
1832.22	623
1830.5	633.5
1828.79	632
1827.07	593
1825.36	619
1823.64	614.5
1821.92	616.5
1820.2	590
1818.48	572
1816.77	568
1815.05	594
1813.33	596
1811.61	567
1809.89	565.5
1808.16	563
1806.44	583
1804.72	538
1803	559
1801.28	598
1799.55	559.5
1797.83	596.5
1796.11	569
1794.38	589
1792.66	573.5
1790.93	550
1789.21	569
1787.48	570
1785.75	527
1784.03	546
1782.3	541
1780.57	519.5
1778.84	537
1777.11	556.5
1775.38	549
1773.66	584
1771.93	538
1770.19	542
1768.46	529
1766.73	528
1765	528
1763.27	547
1761.54	559
1759.8	537.5
1758.07	554.5
1756.34	585.5
1754.6	575.5
1752.87	575.5
1751.13	587.5
1749.4	565
1747.66	609
1745.92	585.5
1744.19	589
1742.45	589.5
1740.71	574.5
1738.97	565
1737.23	581
1735.49	539.5
1733.75	568.5
1732.01	537
1730.27	509.5
1728.53	537.5
1726.79	503.5
1725.05	487
1723.31	506
1721.57	510
1719.82	485
1718.08	501
1716.34	509.5
1714.59	483
1712.85	524
1711.1	481
1709.36	512.5
1707.61	470.5
1705.86	442
1704.12	491.5
1702.37	519
1700.62	441
1698.87	482.5
1697.12	493
1695.37	485
1693.62	455.5
1691.87	495.5
1690.12	477
1688.37	469.5
1686.62	456
1684.87	469.5
1683.12	464.5
1681.36	475
1679.61	460
1677.86	499.5
1676.1	496
1674.35	487
1672.59	514
1670.84	510
1669.08	520
1667.33	515
1665.57	571
1663.81	632
1662.06	631
1660.3	634
1658.54	687
1656.78	711
1655.02	671
1653.26	642.5
1651.5	618.5
1649.74	565
1647.98	570
1646.22	507.5
1644.46	514
1642.7	480
1640.93	469
1639.17	482
1637.41	429
1635.64	439.5
1633.88	415
1632.11	457
1630.35	423
1628.58	410
1626.81	418.5
1625.05	428
1623.28	434.5
1621.51	402
1619.75	428
1617.98	421.5
1616.21	432
1614.44	418
1612.67	416.5
1610.9	402.5
1609.13	412
1607.36	378
1605.58	414
1603.81	416.5
1602.04	400
1600.27	394.5
1598.49	387.5
1596.72	399.5
1594.95	409.5
1593.17	384.5
1591.4	382
1589.62	388.5
1587.84	384
1586.07	388
1584.29	403.5
1582.51	395
1580.74	397
1578.96	415
1577.18	393.5
1575.4	366.5
1573.62	390
1571.84	391.5
1570.06	397.5
1568.28	398.5
1566.5	368
1564.72	385.5
1562.93	371
1561.15	383
1559.37	388
1557.58	420
1555.8	406
1554.02	405
1552.23	379
1550.45	365.5
1548.66	398
1546.87	382.5
1545.09	371
1543.3	368.5
1541.51	373.5
1539.72	339
1537.94	399
1536.15	342
1534.36	359.5
1532.57	361
1530.78	389
1528.99	379
1527.2	361.5
1525.4	387
1523.61	372.5
1521.82	381
1520.03	353
1518.23	357
1516.44	362.5
1514.65	395
1512.85	364.5
1511.06	376
1509.26	379
1507.46	355
1505.67	356
1503.87	373
1502.07	394.5
1500.28	375
1498.48	388.5
1496.68	396
1494.88	402.5
1493.08	427.5
1491.28	413.5
1489.48	412.5
1487.68	431
1485.88	384
1484.08	407.5
1482.27	460.5
1480.47	453
1478.67	459
1476.86	519.5
1475.06	514
1473.25	528
1471.45	545
1469.64	613
1467.84	627
1466.03	678
1464.23	734
1462.42	753
1460.61	818
1458.8	838.5
1456.99	831
1455.18	891.5
1453.37	876
1451.56	908
1449.75	943.5
1447.94	987
1446.13	985.5
1444.32	1035
1442.51	1054
1440.7	1065
1438.88	1053
1437.07	989.5
1435.26	930
1433.44	862.5
1431.63	746.5
1429.81	681
1427.99	625
1426.18	561
1424.36	508
1422.54	503
1420.73	505
1418.91	477
1417.09	473.5
1415.27	443.5
1413.45	440
1411.63	412
1409.81	406
1407.99	388
1406.17	381
1404.35	392.5
1402.53	376
1400.7	375
1398.88	376
1397.06	333.5
1395.23	363.5
1393.41	367.5
1391.58	323
1389.76	353.5
1387.93	374
1386.11	353.5
1384.28	342
1382.45	360
1380.62	387
1378.8	388.5
1376.97	366
1375.14	374.5
1373.31	357
1371.48	379
1369.65	364
1367.82	379
1365.99	376
1364.16	389
1362.32	374
1360.49	398.5
1358.66	369
1356.82	372
1354.99	363
1353.16	376.5
1351.32	375.5
1349.48	364
1347.65	342
1345.81	386
1343.98	406
1342.14	389
1340.3	371.5
1338.46	413
1336.62	394
1334.79	378.5
1332.95	422
1331.11	411
1329.27	403
1327.42	423
1325.58	437
1323.74	472
1321.9	478
1320.06	496
1318.21	550
1316.37	574
1314.53	612
1312.68	640
1310.84	694.5
1308.99	733
1307.15	721
1305.3	796
1303.45	805.5
1301.61	823.5
1299.76	812.5
1297.91	777
1296.06	761
1294.21	685.5
1292.36	645.5
1290.51	587.5
1288.66	596
1286.81	509.5
1284.96	526
1283.11	552
1281.26	535
1279.4	514.5
1277.55	503.5
1275.7	535
1273.84	544
1271.99	522
1270.13	540.5
1268.28	539.5
1266.42	533
1264.56	533
1262.71	520
1260.85	546
1258.99	506.5
1257.13	493.5
1255.27	444
1253.41	482
1251.56	435.5
1249.7	433
1247.83	431.5
1245.97	425
1244.11	363
1242.25	394.5
1240.39	394
1238.52	388.5
1236.66	378
1234.8	365
1232.93	359
1231.07	339
1229.2	344
1227.34	312
1225.47	333
1223.6	358.5
1221.74	349.5
1219.87	336
1218	329
1216.13	328
1214.26	321
1212.39	317
1210.53	326
1208.65	327
1206.78	294
1204.91	313.5
1203.04	305
1201.17	301.5
1199.3	323
1197.42	342
1195.55	319.5
1193.68	301
1191.8	301
1189.93	304.5
1188.05	303
1186.17	308
1184.3	291.5
1182.42	313
1180.54	318
1178.67	326.5
1176.79	330.5
1174.91	281.5
1173.03	267
1171.15	350.5
1169.27	318
1167.39	294.5
1165.51	333
1163.63	331
1161.75	309
1159.86	315.5
1157.98	303.5
1156.1	331
1154.21	339
1152.33	313
1150.44	303.5
1148.56	310
1146.67	354
1144.79	347.5
1142.9	334.5
1141.01	344.5
1139.12	337
1137.24	346
1135.35	397
1133.46	395
1131.57	421.5
1129.68	450
1127.79	448
1125.9	476
1124.01	402.5
1122.12	463.5
1120.22	461.5
1118.33	418.5
1116.44	411.5
1114.54	430
1112.65	427
1110.75	380
1108.86	419.5
1106.96	471
1105.07	439.5
1103.17	472
1101.27	477
1099.38	511
1097.48	498
1095.58	515
1093.68	571
1091.78	564.5
1089.88	583
1087.98	568.5
1086.08	592
1084.18	585
1082.28	668
1080.38	609.5
1078.47	596.5
1076.57	613
1074.67	596
1072.76	601
1070.86	622
1068.95	617
1067.05	621
1065.14	638
1063.24	620.5
1061.33	597
1059.42	571
1057.51	518
1055.6	501.5
1053.7	458
1051.79	458
1049.88	448
1047.97	450
1046.06	410
1044.14	417.5
1042.23	463
1040.32	452
1038.41	457.5
1036.5	425.5
1034.58	451.5
1032.67	445.5
1030.75	429
1028.84	413
1026.92	439
1025.01	453
1023.09	403.5
1021.17	415
1019.26	446
1017.34	425.5
1015.42	401
1013.5	421.5
1011.58	410
1009.66	392
1007.74	411.5
1005.82	430.5
1003.9	419
1001.98	380
1000.06	400
998.134	400.5
996.212	401
994.288	388.5
992.364	430
990.44	422
988.515	436
986.589	448.5
984.663	453
982.737	495.5
980.81	504.5
978.883	482.5
976.955	525
975.027	546
973.098	548
971.169	538.5
969.239	550.5
967.308	551
965.378	537
963.447	529
961.516	525
959.583	538
957.65	546
955.718	533.5
953.784	553
951.85	544
949.916	526.5
947.981	571
946.045	554
944.109	573
942.173	579
940.236	595.5
938.298	604
936.36	573.5
934.422	542
932.484	566
930.544	556.5
928.604	490
926.664	509
924.724	503.5
922.782	483
920.84	445
918.898	491.5
916.955	510.5
915.012	474
913.068	481
911.124	473.5
909.18	475.5
907.235	475.5
905.289	490
903.343	446
901.397	500
899.45	494
897.502	487.5
895.554	491
893.605	561
891.657	542.5
889.707	573
887.758	534
885.807	543.5
883.856	543
881.905	537
879.953	539
878.001	552
876.048	565
874.094	577
872.14	559
870.186	589.5
868.232	553
866.276	574.5
864.321	551.5
862.365	537.5
860.408	541
858.451	543.5
856.493	534
854.535	519
852.576	546.5
850.617	542
848.658	519
846.698	504.5
844.737	522
842.776	554
840.814	504.5
838.852	499
836.89	513.5
834.927	489
832.963	485.5
830.999	437
829.035	458.5
827.07	419.5
825.105	396
823.139	427
821.172	386
819.206	382.5
817.238	389.5
815.27	412
813.301	375.5
811.333	364
809.363	381.5
807.394	367.5
805.424	350
803.453	374.5
801.482	341.5
799.509	346
797.538	350
795.565	300
793.592	309.5
791.618	318
789.643	290.5
787.669	308.5
785.693	330.5
783.718	307
781.742	305
779.765	310
777.788	313
775.811	304.5
773.832	311
771.853	292
769.875	348.5
767.895	319.5
765.915	303.5
763.934	293
761.953	292
759.972	295
757.99	293
756.007	333.5
754.024	308.5
752.041	268
750.056	303
748.072	325.5
746.087	287.5
744.102	285
742.116	311
740.13	323.5
738.143	311.5
736.155	299
734.167	307
732.179	316
730.19	325
728.2	308.5
726.21	331.5
724.22	323.5
722.229	314
720.237	257
718.246	318
716.253	302.5
714.26	270
712.267	293
710.273	282
708.279	280.5
706.284	308.5
704.289	301
702.293	297
700.296	296.5
698.3	283.5
696.303	310
694.305	288.5
692.307	268
690.307	298
688.308	322
686.309	260
684.308	280
682.308	272
680.306	269
678.304	289
676.302	280.5
674.3	301.5
672.296	295
670.293	292
668.289	294.5
666.284	296
664.278	298.5
662.273	306
660.266	293.5
658.26	305.5
656.252	296
654.244	308
652.237	267
650.227	315
648.218	315.5
646.209	288
644.198	314.5
642.188	343
640.177	325
638.165	344
636.153	303
634.14	289
632.128	321.5
630.113	317
628.099	341
626.085	335.5
624.07	311
622.054	343
620.038	349.5
618.021	334
616.004	336.5
613.986	377
611.968	346.5
609.949	362
607.93	366.5
605.911	335
603.891	389
601.87	391
599.848	342.5
597.827	323
595.805	351
593.782	374.5
591.759	293
589.735	324
587.711	330.5
585.687	344.5
583.661	334
581.636	335
579.609	307.5
577.583	340
575.555	332
573.527	316
571.5	356.5
569.471	304.5
567.441	316.5
565.412	348.5
563.382	342
561.351	316.5
559.32	304
557.289	357.5
555.257	386.5
553.223	364.5
551.19	396
549.157	389
547.122	401.5
545.088	395
543.053	441
541.017	471.5
538.981	470
536.943	555.5
534.907	652
532.869	851
530.831	1093
528.792	1608
526.752	2484.5
524.713	3691
522.673	4735
520.632	4908
518.591	4105
516.549	3073
514.507	2074
512.464	1396
510.42	967
508.377	766.5
506.332	607
504.288	554.5
502.242	524
500.196	489
498.15	469
496.104	443
494.056	473
492.008	441.5
489.96	407
487.911	426
485.862	406.5
483.812	427.5
481.761	440.5
479.71	405.5
477.659	405.5
475.607	390.5
473.555	427.5
471.502	419
469.448	392
467.395	411
465.34	415
463.285	408
461.23	401
459.174	382.5
457.118	417.5
455.061	411.5
453.003	386.5
450.945	427
448.887	406
446.828	417.5
444.768	424.5
442.708	425
440.647	457
438.587	410
436.525	425.5
434.463	423
432.4	418
430.337	436
428.274	430
426.21	432.5
424.145	446
422.079	452.5
420.014	425.5
417.948	446.5
415.882	440.5
413.814	402.5
411.746	459.5
409.679	455
407.609	492
405.54	478.5
403.47	501
401.401	474
399.329	450.5
397.258	467
395.187	458.5
393.114	443.5
391.041	464
388.968	454
386.895	455.5
384.82	443.5
382.745	476
380.67	446
378.594	470
376.517	472
374.44	435
372.363	510
370.286	480
368.207	454
366.128	512
364.049	508.5
361.969	486.5
359.888	487
357.807	510.5
355.725	502
353.643	491
351.561	487.5
349.477	513
347.394	483
345.31	512.5
343.226	442
341.141	506
339.055	505
336.968	492
334.882	533.5
332.795	513
330.707	535.5
328.618	490
326.53	548
324.44	540.5
322.351	557
320.26	553.5
318.17	591
316.078	593.5
313.987	635
311.895	632
309.802	670
307.708	689
305.614	710
303.52	670.5
301.425	730.5
299.329	684
297.233	636
295.137	643
293.039	624.5
290.942	610
288.844	623
286.745	637.5
284.647	652.5
282.546	630
280.446	600
278.346	629
276.245	628
274.143	608
272.041	623
269.939	633.5
267.835	632
265.731	671
263.627	620
261.522	684
259.417	668
257.311	685
255.204	666
253.098	700
250.99	673.5
248.882	642
246.774	693.5
244.664	712.5
242.555	717.5
240.445	710
238.334	730
236.223	749
234.112	724.5
232	743.5
229.888	775.5
227.775	770
225.661	726
223.546	758
221.431	792.5
219.316	800
217.201	775.5
215.084	781.5
212.967	804
210.85	757
208.732	776
206.614	801
204.495	793
202.375	794
200.256	753.5
198.135	779
196.014	824.5
193.893	770.5
191.771	793
189.648	804.5
187.525	811.5
185.401	786.5
183.277	778
181.152	800.5
179.027	803
176.901	815
174.775	857
172.648	845.5
170.521	866
168.393	817
166.265	843
164.136	894.5
162.007	884.5
159.876	894.5
157.746	907.5
155.615	914
153.483	984.5
151.351	987.5
149.219	954
147.086	1033
144.952	1029
142.818	1087
140.684	1132
138.548	1161
136.413	1150
134.276	1204
132.139	1248
130.002	1257
127.864	1321
125.725	1375
123.587	1435
121.447	1459
119.307	1524.5
117.166	1608
115.026	1641.5
112.885	1707
110.743	1811
108.6	1825.5
106.456	1870
104.313	1870
102.169	1867.5
100.023	1851.5
97.8789	1768
95.7328	1580.5
93.5869	1464
91.4392	1222
89.2919	1039
87.1447	816
84.9959	678.5
