3528.51	246.5
3527.23	256
3525.95	250
3524.67	263
3523.39	278.5
3522.1	283.5
3520.82	275.5
3519.54	301.5
3518.26	306.5
3516.97	306.5
3515.69	302
3514.4	303.5
3513.12	293
3511.84	298.5
3510.55	294.5
3509.26	292.5
3507.98	287
3506.69	297
3505.41	299
3504.12	322
3502.83	333.5
3501.54	319.5
3500.26	320.5
3498.97	338.5
3497.68	333
3496.39	306
3495.1	337.5
3493.81	327
3492.52	332.5
3491.23	353
3489.94	359.5
3488.65	378.5
3487.36	376.5
3486.07	380.5
3484.78	374.5
3483.49	369
3482.19	373
3480.9	372
3479.61	375
3478.31	384.5
3477.02	403.5
3475.73	412
3474.43	438
3473.14	428.5
3471.84	425
3470.54	417.5
3469.25	409.5
3467.95	426.5
3466.66	410.5
3465.36	411
3464.06	395.5
3462.76	426
3461.46	431.5
3460.17	436.5
3458.87	439
3457.57	438.5
3456.27	458
3454.97	450.5
3453.67	451.5
3452.37	433
3451.07	467
3449.77	468
3448.47	477
3447.16	482
3445.86	499
3444.56	496.5
3443.26	494
3441.95	520.5
3440.65	510.5
3439.35	521
3438.04	524
3436.74	535
3435.43	547.5
3434.13	547.5
3432.82	553.5
3431.52	574.5
3430.21	569
3428.9	605
3427.6	608
3426.29	593.5
3424.98	610.5
3423.67	633
3422.36	628.5
3421.06	637.5
3419.75	635.5
3418.44	660
3417.13	685
3415.82	666
3414.51	683
3413.2	687
3411.88	681.5
3410.57	691.5
3409.26	686.5
3407.95	703
3406.64	716
3405.32	693.5
3404.01	711.5
3402.7	739.5
3401.38	738
3400.07	741.5
3398.75	760.5
3397.44	747.5
3396.12	746.5
3394.81	759
3393.49	773.5
3392.18	749
3390.86	793
3389.54	768.5
3388.23	804
3386.91	824
3385.59	837
3384.27	840.5
3382.95	848
3381.63	856
3380.31	842.5
3378.99	854.5
3377.67	857.5
3376.35	858.5
3375.03	869.5
3373.71	880.5
3372.39	888.5
3371.07	888.5
3369.75	917
3368.42	908
3367.1	921
3365.78	927.5
3364.45	948
3363.13	956
3361.81	960.5
3360.48	924
3359.16	972.5
3357.83	937.5
3356.51	952
3355.18	974
3353.85	961
3352.53	995
3351.2	998
3349.87	1001.5
3348.54	996.5
3347.22	984.5
3345.89	999.5
3344.56	985.5
3343.23	1013
3341.9	1008.5
3340.57	1008
3339.24	1023
3337.91	1047
3336.58	1013.5
3335.25	1020
3333.92	1034
3332.58	1039
3331.25	1024
3329.92	1048
3328.59	1035
3327.25	1044
3325.92	1065
3324.58	1068
3323.25	1088.5
3321.92	1084
3320.58	1083.5
3319.25	1087.5
3317.91	1119
3316.57	1093.5
3315.24	1094.5
3313.9	1099
3312.56	1120
3311.23	1142.5
3309.89	1137
3308.55	1142
3307.21	1157.5
3305.87	1178
3304.53	1174.5
3303.19	1150.5
3301.85	1161
3300.51	1146.5
3299.17	1185
3297.83	1160.5
3296.49	1183.5
3295.15	1209
3293.81	1211.5
3292.46	1205
3291.12	1187
3289.78	1186
3288.43	1188.5
3287.09	1207.5
3285.75	1213
3284.4	1228.5
3283.06	1214
3281.71	1224
3280.37	1242
3279.02	1273
3277.67	1226
3276.33	1282.5
3274.98	1268.5
3273.63	1259.5
3272.28	1301.5
3270.94	1319
3269.59	1310
3268.24	1325.5
3266.89	1348
3265.54	1367
3264.19	1395
3262.84	1389
3261.49	1439.5
3260.14	1452.5
3258.79	1464
3257.44	1494
3256.08	1511
3254.73	1545.5
3253.38	1567
3252.03	1591.5
3250.67	1647.5
3249.32	1684
3247.96	1709
3246.61	1766.5
3245.26	1816
3243.9	1858
3242.54	1909
3241.19	1977
3239.83	1993.5
3238.48	2047
3237.12	2088.5
3235.76	2141
3234.41	2193
3233.05	2284
3231.69	2310.5
3230.33	2347.5
3228.97	2393
3227.61	2426
3226.25	2507
3224.89	2525.5
3223.53	2547.5
3222.17	2573.5
3220.81	2615
3219.45	2676.5
3218.09	2707.5
3216.72	2712.5
3215.36	2789.5
3214	2773.5
3212.63	2774.5
3211.27	2803
3209.91	2842.5
3208.54	2851.5
3207.18	2873.5
3205.81	2841.5
3204.45	2900.5
3203.08	2897.5
3201.71	2982
3200.35	2914
3198.98	2966
3197.61	3025
3196.25	3006.5
3194.88	2995.5
3193.51	3027.5
3192.14	3019
3190.77	3004
3189.4	3061
3188.03	3055
3186.66	3103.5
3185.29	3084.5
3183.92	3161
3182.55	3152.5
3181.18	3145.5
3179.81	3189
3178.44	3172
3177.06	3232
3175.69	3210.5
3174.32	3245
3172.94	3275
3171.57	3282
3170.2	3326
3168.82	3367.5
3167.45	3381
3166.07	3382
3164.69	3471
3163.32	3436.5
3161.94	3440
3160.56	3469
3159.19	3483.5
3157.81	3533
3156.43	3619
3155.05	3643.5
3153.67	3649.5
3152.3	3653.5
3150.92	3692
3149.54	3725
3148.16	3702
3146.78	3785
3145.4	3801
3144.01	3799.5
3142.63	3854
3141.25	3843.5
3139.87	3866.5
3138.49	3939
3137.1	3967.5
3135.72	3958.5
3134.34	3962
3132.95	4034.5
3131.57	4050.5
3130.18	4121.5
3128.8	4058.5
3127.41	4143.5
3126.03	4132.5
3124.64	4182
3123.25	4245
3121.87	4223.5
3120.48	4242.5
3119.09	4312.5
3117.7	4295
3116.32	4307.5
3114.93	4350
3113.54	4340.5
3112.15	4334
3110.76	4403.5
3109.37	4408.5
3107.98	4425.5
3106.59	4427
3105.2	4470.5
3103.8	4454.5
3102.41	4477.5
3101.02	4554.5
3099.63	4569
3098.23	4547.5
3096.84	4537
3095.45	4613.5
3094.05	4616.5
3092.66	4615.5
3091.26	4641.5
3089.87	4604.5
3088.47	4683
3087.08	4704.5
3085.68	4696.5
3084.28	4690.5
3082.89	4750
3081.49	4657
3080.09	4743
3078.69	4724.5
3077.3	4751.5
3075.9	4766
3074.5	4746.5
3073.1	4824
3071.7	4780
3070.3	4796
3068.9	4805
3067.5	4792.5
3066.09	4857.5
3064.69	4841.5
3063.29	4889
3061.89	4871.5
3060.48	4866
3059.08	4857.5
3057.68	4950.5
3056.27	4930.5
3054.87	4962
3053.46	4963
3052.06	5026.5
3050.65	4955.5
3049.25	5006
3047.84	5056
3046.44	5045
3045.03	5073
3043.62	5069
3042.21	5102.5
3040.81	5128.5
3039.4	5108
3037.99	5169
3036.58	5159.5
3035.17	5173.5
3033.76	5176.5
3032.35	5204.5
3030.94	5189
3029.53	5232
3028.12	5247.5
3026.71	5259.5
3025.29	5295
3023.88	5250.5
3022.47	5309
3021.06	5282
3019.64	5285
3018.23	5261.5
3016.82	5327
3015.4	5309
3013.99	5263.5
3012.57	5323.5
3011.15	5337.5
3009.74	5389.5
3008.32	5414
3006.91	5366
3005.49	5379
3004.07	5423.5
3002.65	5438
3001.24	5410
2999.82	5470.5
2998.4	5517
2996.98	5551.5
2995.56	5530.5
2994.14	5599
2992.72	5592.5
2991.3	5661
2989.88	5670
2988.46	5705.5
2987.03	5736.5
2985.61	5756
2984.19	5709.5
2982.77	5770
2981.34	5885
2979.92	5865.5
2978.49	5942
2977.07	5905.5
2975.65	5997.5
2974.22	5991
2972.79	6020
2971.37	6024
2969.94	6003
2968.52	6040
2967.09	6080.5
2965.66	6069.5
2964.23	6120
2962.81	6139
2961.38	6139
2959.95	6185
2958.52	6213
2957.09	6191.5
2955.66	6251
2954.23	6221
2952.8	6215
2951.37	6265
2949.94	6243.5
2948.5	6261.5
2947.07	6265
2945.64	6308
2944.21	6311
2942.77	6342
2941.34	6371
2939.91	6393
2938.47	6384
2937.04	6425
2935.6	6458
2934.17	6494.5
2932.73	6471.5
2931.29	6548
2929.86	6550.5
2928.42	6506
2926.98	6587
2925.55	6591.5
2924.11	6621.5
2922.67	6637
2921.23	6634.5
2919.79	6658
2918.35	6662.5
2916.91	6625.5
2915.47	6640
2914.03	6670
2912.59	6677.5
2911.15	6717.5
2909.71	6696.5
2908.26	6782.5
2906.82	6753
2905.38	6790.5
2903.94	6758
2902.49	6797.5
2901.05	6780.5
2899.6	6827
2898.16	6810.5
2896.71	6837.5
2895.27	6855
2893.82	6797.5
2892.38	6860
2890.93	6860
2889.48	6856
2888.03	6899
2886.59	6842
2885.14	6892.5
2883.69	6886.5
2882.24	6871.5
2880.79	6914
2879.34	6936.5
2877.89	6925.5
2876.44	6986.5
2874.99	6912
2873.54	6893.5
2872.09	6918.5
2870.64	6926.5
2869.18	6920.5
2867.73	6931
2866.28	6927.5
2864.83	6984
2863.37	6990.5
2861.92	6994.5
2860.46	7016.5
2859.01	6962
2857.55	7041
2856.1	7057
2854.64	7056.5
2853.19	7028.5
2851.73	6933
2850.27	7019.5
2848.81	6994
2847.36	6968.5
2845.9	7001.5
2844.44	7021.5
2842.98	6992.5
2841.52	6954.5
2840.06	6944
2838.6	6957.5
2837.14	6869.5
2835.68	6921.5
2834.22	6849.5
2832.76	6862
2831.3	6795.5
2829.83	6865.5
2828.37	6841.5
2826.91	6784
2825.44	6826
2823.98	6900
2822.52	6790
2821.05	6759
2819.59	6759
2818.12	6762.5
2816.66	6689.5
2815.19	6771.5
2813.72	6707
2812.26	6728
2810.79	6730
2809.32	6751
2807.85	6684
2806.38	6722.5
2804.92	6721
2803.45	6711.5
2801.98	6649.5
2800.51	6675
2799.04	6696
2797.57	6670
2796.1	6701.5
2794.62	6686.5
2793.15	6613
2791.68	6653.5
2790.21	6663
2788.73	6628.5
2787.26	6639.5
2785.79	6652
2784.31	6637
2782.84	6605
2781.36	6653
2779.89	6639.5
2778.41	6686
2776.94	6646
2775.46	6633
2773.99	6695.5
2772.51	6650
2771.03	6678.5
2769.55	6616
2768.07	6714
2766.6	6768
2765.12	6693
2763.64	6692.5
2762.16	6735.5
2760.68	6671
2759.2	6712
2757.72	6657
2756.24	6650.5
2754.75	6675.5
2753.27	6670
2751.79	6611
2750.31	6636.5
2748.82	6617
2747.34	6634
2745.86	6688
2744.37	6692
2742.89	6701.5
2741.4	6674.5
2739.92	6664
2738.43	6645.5
2736.94	6668
2735.46	6587
2733.97	6575
2732.48	6615
2731	6629.5
2729.51	6679.5
2728.02	6642
2726.53	6591
2725.04	6601
2723.55	6594.5
2722.06	6595
2720.57	6535.5
2719.08	6611.5
2717.59	6615.5
2716.1	6552
2714.61	6613.5
2713.11	6605
2711.62	6622
2710.13	6626.5
2708.64	6603.5
2707.14	6568.5
2705.65	6546
2704.15	6582.5
2702.66	6515.5
2701.16	6516.5
2699.67	6533
2698.17	6492
2696.67	6536.5
2695.18	6531.5
2693.68	6481.5
2692.18	6473.5
2690.69	6479.5
2689.19	6498
2687.69	6432.5
2686.19	6434.5
2684.69	6416.5
2683.19	6397
2681.69	6370
2680.19	6343.5
2678.69	6393
2677.19	6373.5
2675.68	6394
2674.18	6358
2672.68	6386
2671.18	6347
2669.67	6338
2668.17	6338
2666.66	6313.5
2665.16	6313.5
2663.66	6312
2662.15	6260
2660.64	6326.5
2659.14	6333
2657.63	6283.5
2656.13	6253.5
2654.62	6295
2653.11	6278.5
2651.6	6223.5
2650.09	6267.5
2648.58	6227
2647.08	6193.5
2645.57	6213
2644.06	6168
2642.55	6219
2641.04	6145
2639.52	6144
2638.01	6130.5
2636.5	6102
2634.99	6087.5
2633.48	6000
2631.96	6092
2630.45	6058.5
2628.94	6079
2627.42	6044
2625.91	6046.5
2624.39	6036.5
2622.88	5990.5
2621.36	6054.5
2619.85	6000.5
2618.33	6003.5
2616.81	6052
2615.3	5997.5
2613.78	5978.5
2612.26	5982
2610.74	6010.5
2609.22	5969
2607.7	5899
2606.18	5934
2604.66	5877.5
2603.14	5875
2601.62	5807
2600.1	5825.5
2598.58	5789
2597.06	5738
2595.54	5724.5
2594.01	5740
2592.49	5732.5
2590.97	5702
2589.44	5718
2587.92	5766.5
2586.39	5716.5
2584.87	5773.5
2583.34	5702.5
2581.82	5709
2580.29	5792.5
2578.76	5666.5
2577.24	5662.5
2575.71	5657
2574.18	5695.5
2572.65	5635
2571.13	5647.5
2569.6	5691.5
2568.07	5679.5
2566.54	5673.5
2565.01	5703.5
2563.48	5641.5
2561.95	5638
2560.42	5631
2558.88	5562.5
2557.35	5619
2555.82	5510
2554.29	5500
2552.75	5546.5
2551.22	5516
2549.69	5502
2548.15	5509
2546.62	5482
2545.08	5443
2543.55	5480
2542.01	5429
2540.47	5386.5
2538.94	5422.5
2537.4	5397.5
2535.86	5378.5
2534.33	5422
2532.79	5349
2531.25	5368
2529.71	5348
2528.17	5301
2526.63	5310.5
2525.09	5320.5
2523.55	5278
2522.01	5262
2520.47	5272
2518.92	5280.5
2517.38	5197
2515.84	5239
2514.3	5207
2512.75	5177.5
2511.21	5137
2509.67	5161.5
2508.12	5149
2506.58	5062.5
2505.03	5104.5
2503.49	5091.5
2501.94	5073.5
2500.39	5062
2498.85	5022
2497.3	4989.5
2495.75	4955
2494.2	4955.5
2492.65	4918
2491.11	4933.5
2489.56	4915
2488.01	4925.5
2486.46	4897.5
2484.91	4918.5
2483.36	4917
2481.8	4880
2480.25	4883
2478.7	4897
2477.15	4840
2475.6	4844.5
2474.04	4780.5
2472.49	4727.5
2470.93	4689
2469.38	4720.5
2467.83	4680
2466.27	4677.5
2464.71	4650.5
2463.16	4674
2461.6	4628.5
2460.05	4660.5
2458.49	4585
2456.93	4570
2455.37	4610.5
2453.81	4508
2452.26	4541
2450.7	4486.5
2449.14	4471
2447.58	4471.5
2446.02	4417.5
2444.46	4389.5
2442.9	4388.5
2441.33	4407.5
2439.77	4417
2438.21	4371.5
2436.65	4406.5
2435.08	4395
2433.52	4379.5
2431.96	4309
2430.39	4359
2428.83	4338.5
2427.26	4295
2425.7	4324
2424.13	4341.5
2422.56	4298.5
2421	4247.5
2419.43	4307.5
2417.86	4243
2416.3	4244.5
2414.73	4205.5
2413.16	4203
2411.59	4217
2410.02	4203
2408.45	4273.5
2406.88	4196
2405.31	4253
2403.74	4208.5
2402.17	4197
2400.6	4187
2399.02	4178
2397.45	4134.5
2395.88	4199.5
2394.3	4142
2392.73	4059
2391.16	4123.5
2389.58	4118.5
2388.01	4155
2386.43	4125.5
2384.86	4083
2383.28	4118
2381.7	4110
2380.13	4110
2378.55	4111.5
2376.97	4102.5
2375.39	4041.5
2373.81	4051
2372.23	4050.5
2370.65	4029
2369.07	4045.5
2367.49	4020
2365.91	4006.5
2364.33	3986.5
2362.75	4004
2361.17	3975.5
2359.59	3937
2358.01	3915
2356.42	3930.5
2354.84	3923.5
2353.25	3921
2351.67	3944
2350.09	3947.5
2348.5	3871
2346.92	3895.5
2345.33	3890.5
2343.74	3883
2342.16	3880
2340.57	3881
2338.98	3809.5
2337.39	3813
2335.81	3872.5
2334.22	3846.5
2332.63	3877
2331.04	3840
2329.45	3856.5
2327.86	3818.5
2326.27	3808.5
2324.68	3795.5
2323.09	3802
2321.49	3798
2319.9	3795.5
2318.31	3761.5
2316.72	3722
2315.12	3721
2313.53	3720.5
2311.93	3618.5
2310.34	3660
2308.74	3655
2307.15	3608.5
2305.55	3631
2303.96	3580.5
2302.36	3612
2300.76	3587.5
2299.17	3573
2297.57	3588.5
2295.97	3555.5
2294.37	3555
2292.77	3523
2291.17	3544
2289.57	3484
2287.97	3496
2286.37	3505.5
2284.77	3485.5
2283.17	3505.5
2281.57	3500
2279.96	3468.5
2278.36	3511.5
2276.76	3450
2275.15	3399.5
2273.55	3425.5
2271.95	3368
2270.34	3407.5
2268.74	3371
2267.13	3359.5
2265.52	3378
2263.92	3350.5
2262.31	3344
2260.7	3323
2259.1	3268.5
2257.49	3300.5
2255.88	3297
2254.27	3280.5
2252.66	3252.5
2251.05	3284.5
2249.44	3292
2247.83	3282.5
2246.22	3276.5
2244.61	3263.5
2243	3221
2241.39	3242
2239.77	3204
2238.16	3188
2236.55	3201
2234.93	3205.5
2233.32	3128.5
2231.7	3164.5
2230.09	3167.5
2228.47	3142
2226.86	3143.5
2225.24	3157.5
2223.63	3131
2222.01	3134.5
2220.39	3099
2218.77	3103
2217.16	3037
2215.54	3029
2213.92	2996
2212.3	3035.5
2210.68	3017.5
2209.06	2983.5
2207.44	2972.5
2205.82	2992
2204.19	2974.5
2202.57	2959.5
2200.95	2981.5
2199.33	2942.5
2197.7	2924
2196.08	2918.5
2194.46	2951.5
2192.83	2943.5
2191.21	2924
2189.58	2913.5
2187.96	2903
2186.33	2895.5
2184.7	2879.5
2183.08	2879
2181.45	2828
2179.82	2825
2178.19	2796
2176.57	2815
2174.94	2823.5
2173.31	2802
2171.68	2792
2170.05	2748.5
2168.42	2770
2166.79	2760
2165.16	2752.5
2163.52	2721
2161.89	2744
2160.26	2719.5
2158.63	2701
2156.99	2678.5
2155.36	2700
2153.73	2697
2152.09	2674.5
2150.46	2679
2148.82	2645.5
2147.18	2604
2145.55	2642.5
2143.91	2626
2142.27	2569.5
2140.64	2601.5
2139	2570
2137.36	2570
2135.72	2540.5
2134.08	2542.5
2132.44	2539
2130.8	2543
2129.16	2499.5
2127.52	2489
2125.88	2430.5
2124.24	2417.5
2122.6	2437
2120.95	2433
2119.31	2412.5
2117.67	2433.5
2116.02	2444
2114.38	2440
2112.74	2401.5
2111.09	2391
2109.45	2367.5
2107.8	2363.5
2106.15	2370
2104.51	2337.5
2102.86	2329
2101.21	2326.5
2099.56	2302.5
2097.92	2303
2096.27	2304
2094.62	2286
2092.97	2300
2091.32	2300.5
2089.67	2254.5
2088.02	2294
2086.37	2269.5
2084.72	2311
2083.06	2265
2081.41	2265
2079.76	2270
2078.1	2278
2076.45	2248.5
2074.8	2268.5
2073.14	2254
2071.49	2227
2069.83	2221
2068.18	2247
2066.52	2220
2064.86	2200
2063.21	2197.5
2061.55	2185
2059.89	2204
2058.23	2208
2056.57	2162.5
2054.92	2189
2053.26	2193.5
2051.6	2155.5
2049.94	2132
2048.27	2106
2046.61	2131
2044.95	2088.5
2043.29	2114.5
2041.63	2122.5
2039.97	2088.5
2038.3	2096
2036.64	2096
2034.97	2049.5
2033.31	2023.5
2031.64	2081
2029.98	2019
2028.31	2026.5
2026.65	2007
2024.98	1992.5
2023.31	1996.5
2021.65	1969.5
2019.98	2004.5
2018.31	1993.5
2016.64	1954.5
2014.97	1946.5
2013.3	1932.5
2011.63	1953
2009.96	1917
2008.29	1900.5
2006.62	1884.5
2004.95	1898
2003.28	1889.5
2001.6	1907
1999.93	1906
1998.26	1910
1996.58	1882.5
1994.91	1890
1993.24	1859.5
1991.56	1833.5
1989.89	1839
1988.21	1845.5
1986.53	1852.5
1984.86	1843.5
1983.18	1837.5
1981.5	1837
1979.82	1805.5
1978.15	1811
1976.47	1783.5
1974.79	1822
1973.11	1779
1971.43	1769.5
1969.75	1785.5
1968.07	1750
1966.38	1755
1964.7	1734.5
1963.02	1779.5
1961.34	1749
1959.66	1752
1957.97	1729
1956.29	1699
1954.6	1701
1952.92	1653
1951.23	1660
1949.55	1689
1947.86	1662.5
1946.18	1655
1944.49	1638.5
1942.8	1658.5
1941.11	1635
1939.43	1649.5
1937.74	1632
1936.05	1612
1934.36	1624
1932.67	1616.5
1930.98	1581
1929.29	1586.5
1927.6	1559
1925.91	1580.5
1924.21	1582.5
1922.52	1550.5
1920.83	1540.5
1919.14	1562.5
1917.44	1534.5
1915.75	1538.5
1914.05	1511.5
1912.36	1538
1910.66	1513
1908.97	1526
1907.27	1501.5
1905.58	1494.5
1903.88	1519
1902.18	1489
1900.48	1455
1898.79	1494
1897.09	1466
1895.39	1427
1893.69	1438
1891.99	1438
1890.29	1428.5
1888.59	1430
1886.89	1405
1885.18	1429.5
1883.48	1421
1881.78	1400.5
1880.08	1386.5
1878.37	1366.5
1876.67	1382.5
1874.96	1345.5
1873.26	1343.5
1871.55	1340
1869.85	1355
1868.14	1353.5
1866.44	1315
1864.73	1319.5
1863.02	1342
1861.32	1320
1859.61	1293
1857.9	1297
1856.19	1261.5
1854.48	1288.5
1852.77	1311
1851.06	1278.5
1849.35	1281.5
1847.64	1265.5
1845.93	1293
1844.21	1289.5
1842.5	1290.5
1840.79	1262.5
1839.08	1266.5
1837.36	1236
1835.65	1213.5
1833.93	1234.5
1832.22	1220.5
1830.5	1224
1828.79	1218
1827.07	1231.5
1825.36	1200
1823.64	1216
1821.92	1180
1820.2	1168.5
1818.48	1177.5
1816.77	1169.5
1815.05	1166
1813.33	1167
1811.61	1165.5
1809.89	1163
1808.16	1163
1806.44	1137
1804.72	1152
1803	1124
1801.28	1131
1799.55	1113
1797.83	1103.5
1796.11	1090
1794.38	1100
1792.66	1112
1790.93	1089.5
1789.21	1101
1787.48	1097.5
1785.75	1059
1784.03	1074
1782.3	1065
1780.57	1054
1778.84	1055.5
1777.11	1056.5
1775.38	1061.5
1773.66	1049
1771.93	1034.5
1770.19	1047
1768.46	1070.5
1766.73	1061.5
1765	1075
1763.27	1072.5
1761.54	1079.5
1759.8	1074
1758.07	1074
1756.34	1061.5
1754.6	1106
1752.87	1101
1751.13	1094.5
1749.4	1112.5
1747.66	1127
1745.92	1126
1744.19	1112.5
1742.45	1090.5
1740.71	1061
1738.97	1072.5
1737.23	1044
1735.49	1045
1733.75	1026.5
1732.01	1000.5
1730.27	1000.5
1728.53	1002.5
1726.79	1009
1725.05	1003.5
1723.31	983
1721.57	977.5
1719.82	957.5
1718.08	926.5
1716.34	947
1714.59	928
1712.85	928.5
1711.1	913.5
1709.36	948
1707.61	949.5
1705.86	939
1704.12	925
1702.37	903.5
1700.62	931.5
1698.87	893
1697.12	873.5
1695.37	867
1693.62	878
1691.87	888.5
1690.12	871.5
1688.37	883.5
1686.62	895
1684.87	856.5
1683.12	870
1681.36	877
1679.61	871
1677.86	865.5
1676.1	875.5
1674.35	881
1672.59	888
1670.84	908.5
1669.08	932
1667.33	935
1665.57	955
1663.81	1021.5
1662.06	1015
1660.3	1083
1658.54	1093.5
1656.78	1083.5
1655.02	1112
1653.26	1043.5
1651.5	1044
1649.74	989
1647.98	955.5
1646.22	905.5
1644.46	883
1642.7	871
1640.93	830
1639.17	827.5
1637.41	814
1635.64	789
1633.88	767
1632.11	777
1630.35	789
1628.58	789.5
1626.81	769
1625.05	791
1623.28	763.5
1621.51	754
1619.75	746
1617.98	719.5
1616.21	730
1614.44	726
1612.67	750
1610.9	740.5
1609.13	755.5
1607.36	752
1605.58	737.5
1603.81	739
1602.04	726.5
1600.27	731
1598.49	709
1596.72	715
1594.95	708
1593.17	708
1591.4	709.5
1589.62	692
1587.84	682
1586.07	702.5
1584.29	710
1582.51	711.5
1580.74	693
1578.96	693.5
1577.18	680.5
1575.4	677.5
1573.62	677.5
1571.84	671.5
1570.06	681
1568.28	664
1566.5	662
1564.72	671.5
1562.93	673
1561.15	657
1559.37	655.5
1557.58	649
1555.8	659
1554.02	638.5
1552.23	653
1550.45	640
1548.66	650.5
1546.87	653.5
1545.09	654.5
1543.3	636.5
1541.51	656.5
1539.72	631.5
1537.94	642
1536.15	601
1534.36	597.5
1532.57	616
1530.78	602
1528.99	603.5
1527.2	615
1525.4	606.5
1523.61	625.5
1521.82	610
1520.03	606.5
1518.23	612.5
1516.44	580
1514.65	582
1512.85	603
1511.06	579.5
1509.26	596.5
1507.46	604
1505.67	616
1503.87	628.5
1502.07	627.5
1500.28	619.5
1498.48	630
1496.68	618
1494.88	583
1493.08	616.5
1491.28	628
1489.48	617.5
1487.68	626.5
1485.88	653
1484.08	664.5
1482.27	688.5
1480.47	687.5
1478.67	703
1476.86	743
1475.06	756.5
1473.25	778.5
1471.45	829
1469.64	830
1467.84	900.5
1466.03	940
1464.23	1010.5
1462.42	1039.5
1460.61	1079
1458.8	1110.5
1456.99	1146
1455.18	1163
1453.37	1193
1451.56	1221
1449.75	1250
1447.94	1260
1446.13	1334
1444.32	1354
1442.51	1424.5
1440.7	1398.5
1438.88	1360
1437.07	1293.5
1435.26	1227
1433.44	1084
1431.63	994.5
1429.81	897.5
1427.99	838.5
1426.18	788
1424.36	757
1422.54	726.5
1420.73	700.5
1418.91	677
1417.09	661.5
1415.27	623
1413.45	608.5
1411.63	583
1409.81	562
1407.99	556.5
1406.17	551.5
1404.35	559
1402.53	550.5
1400.7	535.5
1398.88	529.5
1397.06	522
1395.23	500
1393.41	508
1391.58	498
1389.76	496
1387.93	496
1386.11	496
1384.28	500
1382.45	495.5
1380.62	501.5
1378.8	519.5
1376.97	523.5
1375.14	530
1373.31	525.5
1371.48	512
1369.65	532
1367.82	514
1365.99	520.5
1364.16	520
1362.32	515
1360.49	521.5
1358.66	532
1356.82	526.5
1354.99	510.5
1353.16	510.5
1351.32	526.5
1349.48	504.5
1347.65	501
1345.81	525
1343.98	529.5
1342.14	516
1340.3	528.5
1338.46	512
1336.62	534.5
1334.79	532.5
1332.95	551
1331.11	559
1329.27	559.5
1327.42	603
1325.58	604
1323.74	622
1321.9	680
1320.06	685.5
1318.21	736
1316.37	759
1314.53	778.5
1312.68	845
1310.84	868.5
1308.99	921.5
1307.15	962
1305.3	1011
1303.45	999
1301.61	1009
1299.76	1006
1297.91	978
1296.06	905
1294.21	874.5
1292.36	801
1290.51	729
1288.66	724.5
1286.81	693
1284.96	682.5
1283.11	671.5
1281.26	664
1279.4	637.5
1277.55	668
1275.7	660
1273.84	686.5
1271.99	688
1270.13	677.5
1268.28	661.5
1266.42	655
1264.56	642
1262.71	616
1260.85	630
1258.99	606
1257.13	595.5
1255.27	595.5
1253.41	587
1251.56	546.5
1249.7	532
1247.83	508
1245.97	507.5
1244.11	484.5
1242.25	466
1240.39	492
1238.52	461
1236.66	460.5
1234.8	452.5
1232.93	456.5
1231.07	437.5
1229.2	434.5
1227.34	449
1225.47	428.5
1223.6	405.5
1221.74	386
1219.87	381
1218	395
1216.13	385
1214.26	394.5
1212.39	391
1210.53	397
1208.65	398.5
1206.78	398.5
1204.91	381.5
1203.04	375.5
1201.17	376.5
1199.3	369.5
1197.42	376.5
1195.55	366.5
1193.68	388
1191.8	390
1189.93	381
1188.05	389.5
1186.17	388.5
1184.3	387.5
1182.42	368.5
1180.54	366.5
1178.67	362
1176.79	370
1174.91	371.5
1173.03	372
1171.15	384
1169.27	373
1167.39	385
1165.51	383
1163.63	369
1161.75	374
1159.86	366.5
1157.98	363
1156.1	368
1154.21	380
1152.33	352
1150.44	382.5
1148.56	388
1146.67	378
1144.79	407
1142.9	405
1141.01	394
1139.12	410
1137.24	398.5
1135.35	418
1133.46	431
1131.57	461.5
1129.68	479.5
1127.79	500
1125.9	535.5
1124.01	511.5
1122.12	533.5
1120.22	497
1118.33	490
1116.44	483.5
1114.54	482
1112.65	470.5
1110.75	470.5
1108.86	483
1106.96	481
1105.07	507.5
1103.17	541
1101.27	571.5
1099.38	564.5
1097.48	594
1095.58	608
1093.68	641
1091.78	667.5
1089.88	670
1087.98	685
1086.08	712.5
1084.18	737
1082.28	722
1080.38	746.5
1078.47	712
1076.57	718
1074.67	680
1072.76	664.5
1070.86	668
1068.95	676
1067.05	694
1065.14	707
1063.24	702
1061.33	674
1059.42	634.5
1057.51	600.5
1055.6	561
1053.7	538.5
1051.79	513
1049.88	506.5
1047.97	465
1046.06	502
1044.14	491
1042.23	495.5
1040.32	491
1038.41	510
1036.5	497
1034.58	482.5
1032.67	492
1030.75	479
1028.84	483.5
1026.92	479
1025.01	455
1023.09	467.5
1021.17	468
1019.26	481.5
1017.34	474
1015.42	468
1013.5	477
1011.58	469
1009.66	456.5
1007.74	442
1005.82	452
1003.9	436.5
1001.98	435
1000.06	455
998.134	430.5
996.212	446
994.288	437.5
992.364	463
990.44	486
988.515	496.5
986.589	473
984.663	486.5
982.737	516
980.81	531.5
978.883	552
976.955	553.5
975.027	563.5
973.098	588.5
971.169	590.5
969.239	585
967.308	581.5
965.378	562
963.447	560
961.516	556.5
959.583	566
957.65	556.5
955.718	569.5
953.784	557.5
951.85	586
949.916	594
947.981	594
946.045	602
944.109	604.5
942.173	642
940.236	626
938.298	623
936.36	621.5
934.422	615.5
932.484	582
930.544	552
928.604	553.5
926.664	531.5
924.724	537
922.782	539.5
920.84	538.5
918.898	516
916.955	506.5
915.012	514
913.068	511
911.124	499.5
909.18	495
907.235	516
905.289	524
903.343	529
901.397	529
899.45	539
897.502	548
895.554	566.5
893.605	567
891.657	608
889.707	617
887.758	599
885.807	609
883.856	589
881.905	627.5
879.953	625.5
878.001	616.5
876.048	623
874.094	628
872.14	632
870.186	636
868.232	605
866.276	597.5
864.321	604.5
862.365	601.5
860.408	602
858.451	598
856.493	598.5
854.535	600.5
852.576	589.5
850.617	592.5
848.658	579.5
846.698	535
844.737	564.5
842.776	578
840.814	566
838.852	563
836.89	545
834.927	535
832.963	488
830.999	495.5
829.035	482
827.07	456.5
825.105	435
823.139	432
821.172	427.5
819.206	435.5
817.238	419.5
815.27	417.5
813.301	420.5
811.333	404.5
809.363	391
807.394	372
805.424	353.5
803.453	345.5
801.482	327.5
799.509	318.5
797.538	309
795.565	302
793.592	307
791.618	323.5
789.643	313
787.669	311
785.693	304.5
783.718	290.5
781.742	283
779.765	282
777.788	290
775.811	294.5
773.832	295
771.853	292.5
769.875	322
767.895	301
765.915	290.5
763.934	302.5
761.953	290
759.972	280.5
757.99	274.5
756.007	276
754.024	270
752.041	297
750.056	282.5
748.072	298
746.087	294
744.102	312
742.116	295.5
740.13	283.5
738.143	287
736.155	275
734.167	291
732.179	278
730.19	286
728.2	290
726.21	312.5
724.22	304.5
722.229	298.5
720.237	307.5
718.246	280
716.253	288
714.26	264
712.267	251
710.273	248
708.279	245
706.284	238
704.289	250
702.293	244
700.296	256.5
698.3	258.5
696.303	258.5
694.305	245
692.307	255.5
690.307	219.5
688.308	229.5
686.309	230
684.308	239
682.308	238.5
680.306	253.5
678.304	257
676.302	249
674.3	247
672.296	261
670.293	254
668.289	244
666.284	241
664.278	244.5
662.273	265
660.266	235
658.26	263
656.252	264.5
654.244	257
652.237	280.5
650.227	260
648.218	269.5
646.209	251
644.198	253.5
642.188	254.5
640.177	253
638.165	268
636.153	263
634.14	279.5
632.128	279.5
630.113	284
628.099	286.5
626.085	285.5
624.07	285
622.054	282
620.038	292
618.021	291.5
616.004	294
613.986	303
611.968	290.5
609.949	324.5
607.93	334
605.911	322
603.891	313.5
601.87	300.5
599.848	300
597.827	275.5
595.805	293
593.782	284
591.759	272
589.735	293.5
587.711	293.5
585.687	302.5
583.661	281
581.636	276.5
579.609	282
577.583	271
575.555	253.5
573.527	258.5
571.5	256.5
569.471	273.5
567.441	262.5
565.412	271.5
563.382	284
561.351	294.5
559.32	274
557.289	297
555.257	311
553.223	316
551.19	331.5
549.157	324.5
547.122	356.5
545.088	375
543.053	385.5
541.017	418.5
538.981	467.5
536.943	552.5
534.907	669.5
532.869	859
530.831	1174.5
528.792	1768.5
526.752	2719
524.713	3998
522.673	4989
520.632	5035.5
518.591	4125.5
516.549	3032
514.507	2056
512.464	1359
510.42	946
508.377	719
506.332	570
504.288	516.5
502.242	451
500.196	435
498.15	416
496.104	412.5
494.056	411.5
492.008	383
489.96	390
487.911	371
485.862	359.5
483.812	368.5
481.761	356
479.71	345.5
477.659	345
475.607	356.5
473.555	349
471.502	331
469.448	362
467.395	352
465.34	359.5
463.285	360
461.23	343
459.174	345.5
457.118	353
455.061	341.5
453.003	343
450.945	366
448.887	362
446.828	380
444.768	386
442.708	384
440.647	383
438.587	390.5
436.525	374.5
434.463	367.5
432.4	390.5
430.337	388
428.274	391.5
426.21	363
424.145	394.5
422.079	408
420.014	401
417.948	416.5
415.882	407.5
413.814	402
411.746	410.5
409.679	414
407.609	412
405.54	417
403.47	420
401.401	408.5
399.329	416.5
397.258	419.5
395.187	405.5
393.114	419
391.041	407.5
388.968	407
386.895	412.5
384.82	406
382.745	429
380.67	428
378.594	436
376.517	440
374.44	432
372.363	419
370.286	446.5
368.207	442
366.128	437.5
364.049	440.5
361.969	449
359.888	452
357.807	454
355.725	443
353.643	449.5
351.561	474
349.477	468
347.394	470
345.31	486.5
343.226	472.5
341.141	470.5
339.055	480
336.968	484
334.882	489
332.795	492
330.707	525
328.618	528.5
326.53	533
324.44	545.5
322.351	560.5
320.26	573
318.17	584.5
316.078	602.5
313.987	613
311.895	646
309.802	654.5
307.708	661
305.614	705
303.52	693
301.425	689.5
299.329	702
297.233	679
295.137	636.5
293.039	649.5
290.942	625.5
288.844	613
286.745	604
284.647	633
282.546	631
280.446	627.5
278.346	625.5
276.245	635
274.143	648.5
272.041	660.5
269.939	646.5
267.835	647
265.731	658
263.627	663
261.522	678.5
259.417	683
257.311	694
255.204	725
253.098	715
250.99	730
248.882	749.5
246.774	724.5
244.664	725.5
242.555	750
240.445	751.5
238.334	769
236.223	779
234.112	794
232	808.5
229.888	805.5
227.775	825.5
225.661	803
223.546	815
221.431	825.5
219.316	818
217.201	829.5
215.084	825.5
212.967	835
210.85	848
208.732	861
206.614	873.5
204.495	856
202.375	839.5
200.256	854
198.135	845.5
196.014	833.5
193.893	809
191.771	820
189.648	839.5
187.525	812.5
185.401	813.5
183.277	814
181.152	834
179.027	836
176.901	832.5
174.775	846
172.648	826.5
170.521	852
168.393	861
166.265	869.5
164.136	907.5
162.007	926
159.876	928
157.746	945
155.615	974
153.483	968
151.351	1005.5
149.219	995.5
147.086	1020.5
144.952	1064
142.818	1133.5
140.684	1117
138.548	1158
136.413	1201.5
134.276	1227
132.139	1277
130.002	1290
127.864	1348.5
125.725	1434
123.587	1428
121.447	1501
119.307	1537
117.166	1593.5
115.026	1670.5
112.885	1734
110.743	1804.5
108.6	1841.5
106.456	1915.5
104.313	1895.5
102.169	1875
100.023	1816
97.8789	1707
95.7328	1536.5
93.5869	1330.5
91.4392	1152
89.2919	949.5
87.1447	736
84.9959	577.5
