3528.51	134.5
3527.23	148
3525.95	145.5
3524.67	143.5
3523.39	155
3522.1	159
3520.82	162
3519.54	162.5
3518.26	161
3516.97	169
3515.69	171
3514.4	167.5
3513.12	156.5
3511.84	160
3510.55	150.5
3509.26	160.5
3507.98	152.5
3506.69	162
3505.41	162
3504.12	181
3502.83	178
3501.54	173.5
3500.26	182.5
3498.97	191.5
3497.68	190
3496.39	170
3495.1	186.5
3493.81	186
3492.52	187.5
3491.23	206.5
3489.94	208
3488.65	217.5
3487.36	211
3486.07	225
3484.78	214.5
3483.49	202.5
3482.19	207.5
3480.9	206
3479.61	205.5
3478.31	221
3477.02	225.5
3475.73	241.5
3474.43	241
3473.14	241
3471.84	226
3470.54	222.5
3469.25	233
3467.95	227.5
3466.66	237
3465.36	234
3464.06	237
3462.76	245
3461.46	243.5
3460.17	243
3458.87	248.5
3457.57	255
3456.27	262.5
3454.97	262
3453.67	268.5
3452.37	248
3451.07	248.5
3449.77	267
3448.47	263.5
3447.16	266.5
3445.86	284
3444.56	285
3443.26	294
3441.95	293
3440.65	288.5
3439.35	283.5
3438.04	284.5
3436.74	297.5
3435.43	309.5
3434.13	318
3432.82	319.5
3431.52	329
3430.21	329
3428.9	350.5
3427.6	325
3426.29	346.5
3424.98	348
3423.67	360.5
3422.36	345
3421.06	351
3419.75	364
3418.44	382
3417.13	368
3415.82	382
3414.51	370
3413.2	384
3411.88	393.5
3410.57	381
3409.26	379
3407.95	377.5
3406.64	397
3405.32	387.5
3404.01	378.5
3402.7	408
3401.38	431
3400.07	418.5
3398.75	443.5
3397.44	429
3396.12	426
3394.81	406
3393.49	434.5
3392.18	428
3390.86	429
3389.54	444.5
3388.23	458
3386.91	459.5
3385.59	475
3384.27	475.5
3382.95	451
3381.63	475.5
3380.31	475.5
3378.99	484
3377.67	495
3376.35	479
3375.03	486
3373.71	486
3372.39	491.5
3371.07	491
3369.75	484.5
3368.42	515.5
3367.1	514.5
3365.78	510
3364.45	535
3363.13	522
3361.81	526
3360.48	510.5
3359.16	527
3357.83	533
3356.51	544
3355.18	536.5
3353.85	542.5
3352.53	551
3351.2	550.5
3349.87	562
3348.54	566
3347.22	555.5
3345.89	525
3344.56	553.5
3343.23	556
3341.9	573
3340.57	564
3339.24	564
3337.91	559
3336.58	562
3335.25	581
3333.92	576
3332.58	581
3331.25	575
3329.92	601
3328.59	563.5
3327.25	588.5
3325.92	600.5
3324.58	609.5
3323.25	595
3321.92	606
3320.58	621
3319.25	624
3317.91	603
3316.57	615.5
3315.24	585.5
3313.9	595
3312.56	598
3311.23	640.5
3309.89	629
3308.55	621.5
3307.21	643
3305.87	653.5
3304.53	643.5
3303.19	675.5
3301.85	627
3300.51	653.5
3299.17	647.5
3297.83	652.5
3296.49	657
3295.15	679
3293.81	653.5
3292.46	680
3291.12	664
3289.78	672
3288.43	677
3287.09	678
3285.75	675.5
3284.4	665
3283.06	676.5
3281.71	664
3280.37	687.5
3279.02	685
3277.67	703.5
3276.33	709
3274.98	717
3273.63	697.5
3272.28	736
3270.94	723.5
3269.59	725.5
3268.24	719.5
3266.89	729.5
3265.54	754
3264.19	793.5
3262.84	775.5
3261.49	807
3260.14	794
3258.79	827
3257.44	840
3256.08	845
3254.73	852.5
3253.38	874.5
3252.03	897
3250.67	919
3249.32	963
3247.96	958
3246.61	995
3245.26	1042
3243.9	1006.5
3242.54	1101
3241.19	1096.5
3239.83	1124.5
3238.48	1143.5
3237.12	1156
3235.76	1183
3234.41	1227
3233.05	1279
3231.69	1297
3230.33	1341
3228.97	1360.5
3227.61	1363
3226.25	1394.5
3224.89	1421
3223.53	1443.5
3222.17	1426.5
3220.81	1480
3219.45	1496
3218.09	1465
3216.72	1503.5
3215.36	1550
3214	1568
3212.63	1580
3211.27	1561
3209.91	1586.5
3208.54	1581.5
3207.18	1566
3205.81	1571.5
3204.45	1596
3203.08	1621
3201.71	1640
3200.35	1636
3198.98	1656.5
3197.61	1664
3196.25	1659
3194.88	1669.5
3193.51	1643
3192.14	1665.5
3190.77	1667.5
3189.4	1708
3188.03	1710.5
3186.66	1721
3185.29	1704
3183.92	1743.5
3182.55	1760.5
3181.18	1777
3179.81	1792
3178.44	1768
3177.06	1808.5
3175.69	1788
3174.32	1778
3172.94	1852
3171.57	1835.5
3170.2	1868.5
3168.82	1868.5
3167.45	1866.5
3166.07	1880.5
3164.69	1922
3163.32	1929
3161.94	1899.5
3160.56	1953
3159.19	1973
3157.81	1970
3156.43	1983.5
3155.05	2038
3153.67	2013
3152.3	2049.5
3150.92	2065.5
3149.54	2110.5
3148.16	2092.5
3146.78	2098
3145.4	2152.5
3144.01	2082
3142.63	2142.5
3141.25	2143.5
3139.87	2201.5
3138.49	2163
3137.1	2225
3135.72	2176
3134.34	2256.5
3132.95	2225
3131.57	2260
3130.18	2295.5
3128.8	2276
3127.41	2317.5
3126.03	2344.5
3124.64	2353
3123.25	2363
3121.87	2343.5
3120.48	2398
3119.09	2403.5
3117.7	2399.5
3116.32	2413.5
3114.93	2431.5
3113.54	2413.5
3112.15	2441
3110.76	2430
3109.37	2454.5
3107.98	2432
3106.59	2461
3105.2	2492
3103.8	2504
3102.41	2514
3101.02	2527.5
3099.63	2534
3098.23	2520
3096.84	2563
3095.45	2521
3094.05	2533.5
3092.66	2587
3091.26	2584.5
3089.87	2614
3088.47	2590
3087.08	2614.5
3085.68	2601.5
3084.28	2594.5
3082.89	2630.5
3081.49	2563.5
3080.09	2621
3078.69	2600.5
3077.3	2674
3075.9	2673.5
3074.5	2634.5
3073.1	2683.5
3071.7	2716
3070.3	2708.5
3068.9	2725
3067.5	2731.5
3066.09	2707
3064.69	2693
3063.29	2743.5
3061.89	2724
3060.48	2735
3059.08	2742.5
3057.68	2743.5
3056.27	2789.5
3054.87	2776.5
3053.46	2771.5
3052.06	2810.5
3050.65	2778
3049.25	2769
3047.84	2815
3046.44	2837
3045.03	2802
3043.62	2854
3042.21	2856
3040.81	2860.5
3039.4	2893
3037.99	2893.5
3036.58	2916
3035.17	2910
3033.76	2897.5
3032.35	2903.5
3030.94	2887.5
3029.53	2893
3028.12	2937
3026.71	2928.5
3025.29	2970
3023.88	2977
3022.47	2991
3021.06	2979
3019.64	2970
3018.23	2961
3016.82	2985.5
3015.4	2961.5
3013.99	3007
3012.57	2977.5
3011.15	2998.5
3009.74	3001.5
3008.32	3028.5
3006.91	3057.5
3005.49	3048.5
3004.07	3061.5
3002.65	3089
3001.24	3046
2999.82	3069.5
2998.4	3109
2996.98	3127
2995.56	3146
2994.14	3150
2992.72	3179
2991.3	3202.5
2989.88	3205
2988.46	3225.5
2987.03	3254
2985.61	3235
2984.19	3281.5
2982.77	3284.5
2981.34	3239.5
2979.92	3309
2978.49	3335
2977.07	3369
2975.65	3373.5
2974.22	3368
2972.79	3412
2971.37	3419
2969.94	3479.5
2968.52	3433
2967.09	3473
2965.66	3470
2964.23	3495.5
2962.81	3502
2961.38	3467.5
2959.95	3531.5
2958.52	3578.5
2957.09	3566.5
2955.66	3560
2954.23	3612.5
2952.8	3588.5
2951.37	3594
2949.94	3603.5
2948.5	3583
2947.07	3598
2945.64	3631
2944.21	3650
2942.77	3638.5
2941.34	3694.5
2939.91	3743
2938.47	3732.5
2937.04	3719
2935.6	3757
2934.17	3755.5
2932.73	3760
2931.29	3745
2929.86	3793
2928.42	3844.5
2926.98	3853.5
2925.55	3902
2924.11	3869
2922.67	3883.5
2921.23	3861.5
2919.79	3852
2918.35	3865
2916.91	3877.5
2915.47	3900
2914.03	3900.5
2912.59	3930
2911.15	3938.5
2909.71	3961.5
2908.26	3997
2906.82	3974.5
2905.38	3995
2903.94	4004.5
2902.49	3994
2901.05	4032.5
2899.6	4007.5
2898.16	4020
2896.71	4065
2895.27	4017
2893.82	4026
2892.38	4065.5
2890.93	4029
2889.48	4051.5
2888.03	4032
2886.59	4090.5
2885.14	4056
2883.69	4059.5
2882.24	4106
2880.79	4023
2879.34	4083
2877.89	4072
2876.44	4083
2874.99	4084.5
2873.54	4041
2872.09	4047.5
2870.64	4099
2869.18	4071
2867.73	4115
2866.28	4068.5
2864.83	4115
2863.37	4085
2861.92	4073
2860.46	4110.5
2859.01	4088.5
2857.55	4109
2856.1	4064
2854.64	4153.5
2853.19	4117
2851.73	4129.5
2850.27	4123.5
2848.81	4098
2847.36	4096.5
2845.9	4123
2844.44	4080.5
2842.98	4060
2841.52	4019
2840.06	3977.5
2838.6	3991
2837.14	3975
2835.68	3948.5
2834.22	3887.5
2832.76	3941
2831.3	3870
2829.83	3925.5
2828.37	3892
2826.91	3889
2825.44	3858
2823.98	3843.5
2822.52	3817
2821.05	3834.5
2819.59	3792.5
2818.12	3794
2816.66	3785
2815.19	3765
2813.72	3763.5
2812.26	3769.5
2810.79	3774
2809.32	3758
2807.85	3778
2806.38	3745.5
2804.92	3754.5
2803.45	3741.5
2801.98	3731
2800.51	3707
2799.04	3749.5
2797.57	3752.5
2796.1	3698
2794.62	3730
2793.15	3698.5
2791.68	3730
2790.21	3738.5
2788.73	3702
2787.26	3739
2785.79	3741.5
2784.31	3707
2782.84	3682.5
2781.36	3734.5
2779.89	3659
2778.41	3743.5
2776.94	3694.5
2775.46	3752.5
2773.99	3741
2772.51	3735.5
2771.03	3725.5
2769.55	3716.5
2768.07	3739
2766.6	3737
2765.12	3706
2763.64	3700.5
2762.16	3693.5
2760.68	3725.5
2759.2	3708.5
2757.72	3727
2756.24	3686
2754.75	3709.5
2753.27	3715
2751.79	3702
2750.31	3680.5
2748.82	3669
2747.34	3723.5
2745.86	3724
2744.37	3665.5
2742.89	3723.5
2741.4	3690.5
2739.92	3693
2738.43	3695
2736.94	3690
2735.46	3714
2733.97	3685
2732.48	3687.5
2731	3700.5
2729.51	3671
2728.02	3722.5
2726.53	3700
2725.04	3709.5
2723.55	3710.5
2722.06	3710
2720.57	3654
2719.08	3704
2717.59	3664
2716.1	3699
2714.61	3637
2713.11	3745.5
2711.62	3650.5
2710.13	3661
2708.64	3695.5
2707.14	3652.5
2705.65	3698.5
2704.15	3609.5
2702.66	3689
2701.16	3605
2699.67	3625.5
2698.17	3594
2696.67	3641
2695.18	3592.5
2693.68	3623.5
2692.18	3609.5
2690.69	3614
2689.19	3598.5
2687.69	3594.5
2686.19	3561.5
2684.69	3555
2683.19	3575
2681.69	3520
2680.19	3616.5
2678.69	3596
2677.19	3572.5
2675.68	3625
2674.18	3536
2672.68	3582
2671.18	3567.5
2669.67	3556
2668.17	3530
2666.66	3486
2665.16	3583
2663.66	3515.5
2662.15	3540.5
2660.64	3539
2659.14	3536.5
2657.63	3498.5
2656.13	3506
2654.62	3522.5
2653.11	3527.5
2651.6	3501.5
2650.09	3445.5
2648.58	3460.5
2647.08	3474
2645.57	3460.5
2644.06	3452.5
2642.55	3447.5
2641.04	3452.5
2639.52	3433
2638.01	3428.5
2636.5	3425
2634.99	3399
2633.48	3382.5
2631.96	3412
2630.45	3393
2628.94	3397
2627.42	3357
2625.91	3341
2624.39	3351
2622.88	3330
2621.36	3386
2619.85	3370
2618.33	3318
2616.81	3369
2615.3	3347
2613.78	3353
2612.26	3325
2610.74	3323.5
2609.22	3304.5
2607.7	3306
2606.18	3290.5
2604.66	3309
2603.14	3311.5
2601.62	3276.5
2600.1	3267
2598.58	3241.5
2597.06	3191
2595.54	3231
2594.01	3226
2592.49	3234
2590.97	3234
2589.44	3200
2587.92	3233.5
2586.39	3202
2584.87	3234.5
2583.34	3191
2581.82	3179.5
2580.29	3220.5
2578.76	3161.5
2577.24	3180.5
2575.71	3145
2574.18	3215
2572.65	3162.5
2571.13	3179.5
2569.6	3142
2568.07	3152.5
2566.54	3175
2565.01	3127
2563.48	3139
2561.95	3142
2560.42	3141.5
2558.88	3159
2557.35	3117
2555.82	3104.5
2554.29	3047
2552.75	3117.5
2551.22	3091
2549.69	3057
2548.15	3066.5
2546.62	3053
2545.08	3093
2543.55	3064
2542.01	3043
2540.47	3055
2538.94	3048.5
2537.4	3012
2535.86	2985
2534.33	3031.5
2532.79	2996.5
2531.25	2975.5
2529.71	2979.5
2528.17	2961
2526.63	2942.5
2525.09	2955.5
2523.55	2941
2522.01	2907
2520.47	2923
2518.92	2911
2517.38	2959.5
2515.84	2901
2514.3	2912.5
2512.75	2904
2511.21	2830
2509.67	2844
2508.12	2852.5
2506.58	2836
2505.03	2828
2503.49	2832
2501.94	2824
2500.39	2833
2498.85	2830.5
2497.3	2832
2495.75	2844.5
2494.2	2803
2492.65	2781.5
2491.11	2754.5
2489.56	2733.5
2488.01	2728.5
2486.46	2742.5
2484.91	2738.5
2483.36	2729
2481.8	2728
2480.25	2737.5
2478.7	2712
2477.15	2695.5
2475.6	2656.5
2474.04	2655
2472.49	2653
2470.93	2651
2469.38	2621
2467.83	2644
2466.27	2634
2464.71	2635
2463.16	2638
2461.6	2624
2460.05	2624
2458.49	2600
2456.93	2560
2455.37	2536
2453.81	2567.5
2452.26	2581
2450.7	2540.5
2449.14	2517
2447.58	2538.5
2446.02	2463.5
2444.46	2488.5
2442.9	2500.5
2441.33	2485
2439.77	2435.5
2438.21	2438
2436.65	2459
2435.08	2476.5
2433.52	2411
2431.96	2424
2430.39	2456
2428.83	2443
2427.26	2392
2425.7	2474
2424.13	2464
2422.56	2396.5
2421	2389.5
2419.43	2389.5
2417.86	2372
2416.3	2379.5
2414.73	2333
2413.16	2375
2411.59	2337.5
2410.02	2334.5
2408.45	2358.5
2406.88	2364
2405.31	2354.5
2403.74	2370
2402.17	2339
2400.6	2340
2399.02	2359
2397.45	2308.5
2395.88	2315
2394.3	2305
2392.73	2316
2391.16	2318
2389.58	2334.5
2388.01	2288.5
2386.43	2327.5
2384.86	2304
2383.28	2290.5
2381.7	2303.5
2380.13	2295
2378.55	2299.5
2376.97	2292
2375.39	2296
2373.81	2252
2372.23	2243
2370.65	2263.5
2369.07	2260.5
2367.49	2236.5
2365.91	2213
2364.33	2237
2362.75	2225
2361.17	2214
2359.59	2256.5
2358.01	2229.5
2356.42	2198.5
2354.84	2212.5
2353.25	2208
2351.67	2185
2350.09	2225
2348.5	2170
2346.92	2155
2345.33	2184
2343.74	2186.5
2342.16	2173
2340.57	2161.5
2338.98	2165
2337.39	2153
2335.81	2179.5
2334.22	2168.5
2332.63	2143.5
2331.04	2156
2329.45	2153.5
2327.86	2110
2326.27	2116
2324.68	2112
2323.09	2134
2321.49	2107
2319.9	2079
2318.31	2112
2316.72	2073
2315.12	2080
2313.53	2074
2311.93	2048.5
2310.34	2065
2308.74	2022
2307.15	2057
2305.55	2056.5
2303.96	2030
2302.36	2012
2300.76	2009.5
2299.17	1990
2297.57	1976
2295.97	1991
2294.37	1995
2292.77	1986
2291.17	1995
2289.57	1973.5
2287.97	1944.5
2286.37	1950.5
2284.77	1958
2283.17	1962
2281.57	1957
2279.96	1946.5
2278.36	1937
2276.76	1921.5
2275.15	1926.5
2273.55	1877
2271.95	1892
2270.34	1899
2268.74	1928.5
2267.13	1872.5
2265.52	1904
2263.92	1888.5
2262.31	1853
2260.7	1849.5
2259.1	1829
2257.49	1847.5
2255.88	1822
2254.27	1832
2252.66	1815
2251.05	1836
2249.44	1871.5
2247.83	1855.5
2246.22	1831
2244.61	1816
2243	1861.5
2241.39	1782
2239.77	1816
2238.16	1789.5
2236.55	1809.5
2234.93	1791.5
2233.32	1805
2231.7	1748
2230.09	1771.5
2228.47	1769
2226.86	1754
2225.24	1760
2223.63	1771
2222.01	1777
2220.39	1762.5
2218.77	1730
2217.16	1733.5
2215.54	1713
2213.92	1677.5
2212.3	1737
2210.68	1687.5
2209.06	1680
2207.44	1680
2205.82	1679
2204.19	1669
2202.57	1661
2200.95	1647.5
2199.33	1647
2197.7	1649
2196.08	1650
2194.46	1658
2192.83	1652.5
2191.21	1654
2189.58	1661.5
2187.96	1619
2186.33	1659
2184.7	1607
2183.08	1630
2181.45	1585
2179.82	1592
2178.19	1599.5
2176.57	1559.5
2174.94	1601.5
2173.31	1586
2171.68	1605.5
2170.05	1586.5
2168.42	1561
2166.79	1545.5
2165.16	1553
2163.52	1575
2161.89	1563
2160.26	1522
2158.63	1529
2156.99	1499.5
2155.36	1510
2153.73	1534
2152.09	1522
2150.46	1516
2148.82	1494
2147.18	1513
2145.55	1479
2143.91	1470.5
2142.27	1446.5
2140.64	1469
2139	1442
2137.36	1452.5
2135.72	1476.5
2134.08	1442.5
2132.44	1429
2130.8	1430
2129.16	1409.5
2127.52	1377.5
2125.88	1353.5
2124.24	1388.5
2122.6	1383
2120.95	1379
2119.31	1375.5
2117.67	1385
2116.02	1394
2114.38	1363.5
2112.74	1337
2111.09	1363
2109.45	1332
2107.8	1321
2106.15	1340
2104.51	1340
2102.86	1308.5
2101.21	1334
2099.56	1312
2097.92	1328
2096.27	1343.5
2094.62	1320
2092.97	1320
2091.32	1339
2089.67	1299.5
2088.02	1296.5
2086.37	1313
2084.72	1272
2083.06	1316
2081.41	1279
2079.76	1308.5
2078.1	1305
2076.45	1268.5
2074.8	1259.5
2073.14	1281
2071.49	1281
2069.83	1276
2068.18	1271.5
2066.52	1290
2064.86	1258
2063.21	1243.5
2061.55	1244
2059.89	1236.5
2058.23	1247
2056.57	1262.5
2054.92	1267.5
2053.26	1209.5
2051.6	1211
2049.94	1216.5
2048.27	1224
2046.61	1212.5
2044.95	1191
2043.29	1221
2041.63	1235
2039.97	1201
2038.3	1218
2036.64	1176
2034.97	1196
2033.31	1191.5
2031.64	1160.5
2029.98	1145.5
2028.31	1155
2026.65	1161
2024.98	1158
2023.31	1132.5
2021.65	1140
2019.98	1118.5
2018.31	1130.5
2016.64	1128.5
2014.97	1101
2013.3	1128.5
2011.63	1098
2009.96	1085.5
2008.29	1087.5
2006.62	1111.5
2004.95	1113.5
2003.28	1107
2001.6	1107.5
1999.93	1094
1998.26	1092.5
1996.58	1079.5
1994.91	1135.5
1993.24	1058
1991.56	1068
1989.89	1045
1988.21	1048.5
1986.53	1053
1984.86	1051.5
1983.18	1064.5
1981.5	1050.5
1979.82	1057
1978.15	1051.5
1976.47	1030.5
1974.79	1033
1973.11	1036.5
1971.43	1036
1969.75	1028.5
1968.07	1007
1966.38	1015
1964.7	1010
1963.02	1017
1961.34	997
1959.66	1002.5
1957.97	1013.5
1956.29	990
1954.6	986.5
1952.92	978
1951.23	979
1949.55	989.5
1947.86	966
1946.18	970
1944.49	965
1942.8	965
1941.11	968
1939.43	954.5
1937.74	952
1936.05	930
1934.36	934.5
1932.67	923.5
1930.98	925
1929.29	929.5
1927.6	922.5
1925.91	899.5
1924.21	925
1922.52	910
1920.83	905.5
1919.14	899
1917.44	914.5
1915.75	898
1914.05	903.5
1912.36	894
1910.66	875
1908.97	909
1907.27	898
1905.58	913
1903.88	909
1902.18	876.5
1900.48	859
1898.79	856
1897.09	847
1895.39	843.5
1893.69	848
1891.99	859
1890.29	844.5
1888.59	833
1886.89	837.5
1885.18	837
1883.48	837.5
1881.78	852.5
1880.08	818.5
1878.37	816.5
1876.67	813
1874.96	798
1873.26	805.5
1871.55	795
1869.85	792.5
1868.14	806
1866.44	788
1864.73	801.5
1863.02	804
1861.32	790
1859.61	781.5
1857.9	779
1856.19	749.5
1854.48	757
1852.77	795.5
1851.06	769.5
1849.35	749
1847.64	747.5
1845.93	772.5
1844.21	780
1842.5	753.5
1840.79	741.5
1839.08	720
1837.36	735.5
1835.65	696
1833.93	739
1832.22	723
1830.5	758.5
1828.79	756.5
1827.07	765
1825.36	732.5
1823.64	722.5
1821.92	722
1820.2	721
1818.48	725
1816.77	713
1815.05	700.5
1813.33	692
1811.61	704
1809.89	720
1808.16	705
1806.44	695
1804.72	705
1803	688.5
1801.28	712
1799.55	692
1797.83	679
1796.11	667.5
1794.38	665
1792.66	680
1790.93	657
1789.21	685
1787.48	685
1785.75	675.5
1784.03	667.5
1782.3	676
1780.57	660.5
1778.84	667.5
1777.11	664.5
1775.38	666
1773.66	662
1771.93	645
1770.19	647.5
1768.46	668
1766.73	658
1765	677.5
1763.27	670
1761.54	675.5
1759.8	687
1758.07	690
1756.34	695.5
1754.6	725.5
1752.87	722.5
1751.13	738
1749.4	724.5
1747.66	741.5
1745.92	736
1744.19	739.5
1742.45	737
1740.71	703
1738.97	695
1737.23	679
1735.49	691
1733.75	658
1732.01	673
1730.27	650.5
1728.53	645
1726.79	638.5
1725.05	652
1723.31	634.5
1721.57	637
1719.82	595.5
1718.08	622.5
1716.34	601
1714.59	606.5
1712.85	604
1711.1	605.5
1709.36	602
1707.61	600
1705.86	612.5
1704.12	609.5
1702.37	573
1700.62	598
1698.87	569.5
1697.12	586
1695.37	580
1693.62	570
1691.87	591.5
1690.12	573
1688.37	596
1686.62	590.5
1684.87	565
1683.12	578
1681.36	598
1679.61	596
1677.86	597
1676.1	585
1674.35	619.5
1672.59	619.5
1670.84	650.5
1669.08	660
1667.33	700
1665.57	720.5
1663.81	761
1662.06	800
1660.3	834.5
1658.54	870
1656.78	873
1655.02	877
1653.26	829
1651.5	794.5
1649.74	748
1647.98	717
1646.22	682
1644.46	655
1642.7	628
1640.93	602.5
1639.17	591.5
1637.41	566
1635.64	549
1633.88	539.5
1632.11	545.5
1630.35	542.5
1628.58	566.5
1626.81	547
1625.05	547
1623.28	522
1621.51	528.5
1619.75	521.5
1617.98	509
1616.21	522
1614.44	524
1612.67	528
1610.9	531.5
1609.13	516.5
1607.36	510
1605.58	507.5
1603.81	528
1602.04	508.5
1600.27	509.5
1598.49	498
1596.72	494
1594.95	491
1593.17	514
1591.4	513
1589.62	498
1587.84	512
1586.07	490.5
1584.29	526.5
1582.51	501.5
1580.74	500.5
1578.96	509.5
1577.18	489
1575.4	494
1573.62	458.5
1571.84	483
1570.06	490.5
1568.28	499.5
1566.5	493
1564.72	476.5
1562.93	468
1561.15	481
1559.37	493
1557.58	485
1555.8	483
1554.02	479.5
1552.23	470
1550.45	467.5
1548.66	472
1546.87	474.5
1545.09	478
1543.3	462
1541.51	477
1539.72	479.5
1537.94	475
1536.15	452.5
1534.36	468
1532.57	463.5
1530.78	464.5
1528.99	475.5
1527.2	481
1525.4	470
1523.61	464
1521.82	480
1520.03	476
1518.23	469
1516.44	462.5
1514.65	450.5
1512.85	464
1511.06	457
1509.26	477
1507.46	473.5
1505.67	476.5
1503.87	488.5
1502.07	498
1500.28	504
1498.48	508
1496.68	519.5
1494.88	493.5
1493.08	515.5
1491.28	505.5
1489.48	532.5
1487.68	529.5
1485.88	550
1484.08	562.5
1482.27	597.5
1480.47	600
1478.67	612.5
1476.86	648.5
1475.06	674.5
1473.25	714.5
1471.45	748
1469.64	811.5
1467.84	859
1466.03	889.5
1464.23	974.5
1462.42	1002
1460.61	1053.5
1458.8	1084
1456.99	1149
1455.18	1143.5
1453.37	1173
1451.56	1217
1449.75	1268
1447.94	1284
1446.13	1362
1444.32	1402.5
1442.51	1441.5
1440.7	1465
1438.88	1400.5
1437.07	1322.5
1435.26	1222
1433.44	1080
1431.63	992
1429.81	885.5
1427.99	812.5
1426.18	778
1424.36	700.5
1422.54	669
1420.73	653.5
1418.91	637.5
1417.09	613
1415.27	578.5
1413.45	567
1411.63	534.5
1409.81	527.5
1407.99	541.5
1406.17	496
1404.35	519.5
1402.53	512
1400.7	514.5
1398.88	493
1397.06	481
1395.23	449.5
1393.41	487
1391.58	460
1389.76	458.5
1387.93	450
1386.11	468.5
1384.28	459
1382.45	462.5
1380.62	478.5
1378.8	500.5
1376.97	487.5
1375.14	507.5
1373.31	503.5
1371.48	497
1369.65	494
1367.82	517
1365.99	514.5
1364.16	510
1362.32	511
1360.49	506
1358.66	521
1356.82	503.5
1354.99	493.5
1353.16	507
1351.32	485
1349.48	514.5
1347.65	480.5
1345.81	508.5
1343.98	518.5
1342.14	513
1340.3	519.5
1338.46	525
1336.62	556
1334.79	544.5
1332.95	546
1331.11	564
1329.27	588
1327.42	602
1325.58	638.5
1323.74	643.5
1321.9	686.5
1320.06	736
1318.21	774
1316.37	805
1314.53	855.5
1312.68	898
1310.84	931
1308.99	992.5
1307.15	1013.5
1305.3	1063.5
1303.45	1091
1301.61	1115.5
1299.76	1113
1297.91	1065
1296.06	1022
1294.21	943
1292.36	878.5
1290.51	816
1288.66	743.5
1286.81	762
1284.96	724
1283.11	723
1281.26	718
1279.4	710.5
1277.55	724
1275.7	732.5
1273.84	732.5
1271.99	721.5
1270.13	732
1268.28	746.5
1266.42	726.5
1264.56	723
1262.71	703.5
1260.85	714.5
1258.99	674.5
1257.13	657
1255.27	653
1253.41	630
1251.56	610
1249.7	594.5
1247.83	569.5
1245.97	562
1244.11	528
1242.25	521.5
1240.39	553
1238.52	524
1236.66	501
1234.8	510
1232.93	513
1231.07	501
1229.2	508.5
1227.34	482
1225.47	480
1223.6	457.5
1221.74	450
1219.87	464
1218	435
1216.13	472.5
1214.26	455
1212.39	444
1210.53	454.5
1208.65	462
1206.78	468
1204.91	445.5
1203.04	435
1201.17	451.5
1199.3	437
1197.42	441.5
1195.55	423
1193.68	452
1191.8	447.5
1189.93	458.5
1188.05	484
1186.17	429
1184.3	458
1182.42	456
1180.54	435
1178.67	447
1176.79	450
1174.91	443
1173.03	461
1171.15	460
1169.27	466
1167.39	445
1165.51	463.5
1163.63	451.5
1161.75	452.5
1159.86	450.5
1157.98	444
1156.1	461
1154.21	464.5
1152.33	455.5
1150.44	478.5
1148.56	468
1146.67	489.5
1144.79	489
1142.9	500.5
1141.01	474
1139.12	489
1137.24	493.5
1135.35	526
1133.46	534.5
1131.57	588.5
1129.68	629
1127.79	634
1125.9	656.5
1124.01	621
1122.12	642
1120.22	632
1118.33	623.5
1116.44	603
1114.54	587.5
1112.65	600
1110.75	592
1108.86	607.5
1106.96	618
1105.07	644
1103.17	683.5
1101.27	694
1099.38	696.5
1097.48	740.5
1095.58	756
1093.68	783.5
1091.78	805
1089.88	844.5
1087.98	844
1086.08	861
1084.18	887.5
1082.28	875
1080.38	890.5
1078.47	881
1076.57	870
1074.67	814
1072.76	815
1070.86	837
1068.95	854
1067.05	878.5
1065.14	878
1063.24	890
1061.33	837
1059.42	806
1057.51	744
1055.6	728.5
1053.7	669
1051.79	675.5
1049.88	647.5
1047.97	640
1046.06	658.5
1044.14	624
1042.23	641.5
1040.32	654.5
1038.41	645
1036.5	661
1034.58	645.5
1032.67	640.5
1030.75	615
1028.84	605.5
1026.92	614
1025.01	612.5
1023.09	618.5
1021.17	628
1019.26	637
1017.34	624.5
1015.42	612.5
1013.5	585
1011.58	603
1009.66	583.5
1007.74	586.5
1005.82	597.5
1003.9	559
1001.98	545
1000.06	598.5
998.134	572.5
996.212	567
994.288	559.5
992.364	586.5
990.44	591.5
988.515	607.5
986.589	607
984.663	608
982.737	637
980.81	629.5
978.883	662.5
976.955	668.5
975.027	693.5
973.098	704
971.169	699
969.239	694.5
967.308	677.5
965.378	696
963.447	669.5
961.516	662.5
959.583	654.5
957.65	674.5
955.718	672
953.784	676.5
951.85	682.5
949.916	690
947.981	714.5
946.045	701.5
944.109	722.5
942.173	741.5
940.236	725.5
938.298	717.5
936.36	737
934.422	716
932.484	717.5
930.544	690
928.604	714.5
926.664	704
924.724	720
922.782	722.5
920.84	678
918.898	699
916.955	676
915.012	676
913.068	682
911.124	685.5
909.18	693.5
907.235	710.5
905.289	722
903.343	706.5
901.397	734
899.45	730
897.502	750.5
895.554	773
893.605	783.5
891.657	820
889.707	809
887.758	819.5
885.807	799
883.856	803
881.905	811.5
879.953	831.5
878.001	846.5
876.048	853
874.094	846
872.14	833.5
870.186	862
868.232	834
866.276	827
864.321	842.5
862.365	817.5
860.408	821
858.451	820.5
856.493	822
854.535	821
852.576	814.5
850.617	805
848.658	804.5
846.698	788
844.737	811
842.776	793
840.814	774.5
838.852	754.5
836.89	763.5
834.927	735.5
832.963	731
830.999	720
829.035	681.5
827.07	666.5
825.105	640
823.139	650.5
821.172	624
819.206	621
817.238	613
815.27	621.5
813.301	583
811.333	594
809.363	584.5
807.394	564.5
805.424	577.5
803.453	557
801.482	523
799.509	536.5
797.538	501.5
795.565	517.5
793.592	507
791.618	501.5
789.643	499
787.669	494.5
785.693	487.5
783.718	493
781.742	475
779.765	487.5
777.788	495
775.811	493.5
773.832	509.5
771.853	516.5
769.875	507
767.895	497
765.915	504.5
763.934	498.5
761.953	487.5
759.972	477
757.99	480.5
756.007	481.5
754.024	478.5
752.041	483.5
750.056	484
748.072	501
746.087	496
744.102	492.5
742.116	507
740.13	495.5
738.143	520.5
736.155	505.5
734.167	498.5
732.179	512
730.19	499
728.2	525.5
726.21	537.5
724.22	504
722.229	520.5
720.237	504
718.246	501
716.253	466
714.26	481.5
712.267	446
710.273	475.5
708.279	468.5
706.284	448
704.289	456
702.293	463.5
700.296	488.5
698.3	476.5
696.303	470.5
694.305	455
692.307	447
690.307	432.5
688.308	457
686.309	459.5
684.308	467.5
682.308	466.5
680.306	487
678.304	484.5
676.302	456
674.3	478
672.296	469.5
670.293	457
668.289	455.5
666.284	479
664.278	451
662.273	464
660.266	458
658.26	475
656.252	476.5
654.244	482
652.237	487.5
650.227	486
648.218	482
646.209	491.5
644.198	478.5
642.188	481
640.177	492.5
638.165	512
636.153	499.5
634.14	507.5
632.128	513.5
630.113	501
628.099	515
626.085	536.5
624.07	513.5
622.054	521
620.038	511.5
618.021	521.5
616.004	545.5
613.986	568.5
611.968	552.5
609.949	573.5
607.93	570.5
605.911	563
603.891	563
601.87	550
599.848	544.5
597.827	529
595.805	545.5
593.782	532
591.759	546
589.735	526.5
587.711	548
585.687	557.5
583.661	530.5
581.636	531.5
579.609	523.5
577.583	527
575.555	507
573.527	531
571.5	503
569.471	510
567.441	511
565.412	525.5
563.382	534
561.351	566.5
559.32	524
557.289	540.5
555.257	552.5
553.223	544
551.19	567.5
549.157	566
547.122	584
545.088	597.5
543.053	621
541.017	657
538.981	694.5
536.943	739.5
534.907	805
532.869	902.5
530.831	1130.5
528.792	1484
526.752	2103.5
524.713	2877
522.673	3568
520.632	3520.5
518.591	2951
516.549	2268.5
514.507	1646.5
512.464	1245.5
510.42	990
508.377	842
506.332	728.5
504.288	690
502.242	672.5
500.196	686
498.15	660
496.104	658.5
494.056	642.5
492.008	641
489.96	655
487.911	629
485.862	631
483.812	625
481.761	645.5
479.71	611.5
477.659	644
475.607	636
473.555	627.5
471.502	613
469.448	639.5
467.395	651
465.34	635.5
463.285	631
461.23	638.5
459.174	636.5
457.118	635.5
455.061	630.5
453.003	633
450.945	653
448.887	647.5
446.828	645
444.768	653
442.708	665
440.647	665
438.587	646
436.525	661.5
434.463	664.5
432.4	664
430.337	670.5
428.274	669
426.21	683
424.145	688
422.079	704.5
420.014	695.5
417.948	697
415.882	688.5
413.814	682.5
411.746	697.5
409.679	681.5
407.609	701
405.54	718
403.47	710
401.401	713
399.329	723
397.258	717.5
395.187	715
393.114	705.5
391.041	710
388.968	703
386.895	700.5
384.82	710.5
382.745	725.5
380.67	694
378.594	712.5
376.517	728
374.44	750
372.363	724.5
370.286	738.5
368.207	752.5
366.128	738.5
364.049	742
361.969	748
359.888	746
357.807	773.5
355.725	752
353.643	756.5
351.561	754.5
349.477	769.5
347.394	771.5
345.31	783.5
343.226	762.5
341.141	758.5
339.055	769.5
336.968	792
334.882	773
332.795	792
330.707	823
328.618	833.5
326.53	804.5
324.44	831
322.351	839.5
320.26	834.5
318.17	838.5
316.078	848.5
313.987	866.5
311.895	890
309.802	906
307.708	944.5
305.614	967.5
303.52	956
301.425	957
299.329	949.5
297.233	940.5
295.137	946.5
293.039	927.5
290.942	930
288.844	919
286.745	944
284.647	929
282.546	957.5
280.446	961
278.346	976.5
276.245	991.5
274.143	977
272.041	974.5
269.939	954.5
267.835	966
265.731	985
263.627	1026
261.522	1021.5
259.417	1026.5
257.311	1054
255.204	1090
253.098	1064.5
250.99	1082
248.882	1078.5
246.774	1100
244.664	1098.5
242.555	1111.5
240.445	1130.5
238.334	1139.5
236.223	1129.5
234.112	1154.5
232	1182
229.888	1184.5
227.775	1202.5
225.661	1210
223.546	1231
221.431	1212.5
219.316	1233
217.201	1246
215.084	1226
212.967	1248.5
210.85	1255
208.732	1270
206.614	1274
204.495	1232
202.375	1261
200.256	1260
198.135	1282
196.014	1260.5
193.893	1223
191.771	1228.5
189.648	1243.5
187.525	1266
185.401	1258.5
183.277	1258
181.152	1282
179.027	1248.5
176.901	1247
174.775	1260.5
172.648	1263.5
170.521	1285.5
168.393	1290.5
166.265	1318
164.136	1324
162.007	1337.5
159.876	1386.5
157.746	1383
155.615	1406
153.483	1431
151.351	1462
149.219	1465
147.086	1517
144.952	1533
142.818	1594
140.684	1642.5
138.548	1683
136.413	1695
134.276	1767.5
132.139	1837
130.002	1866
127.864	1907
125.725	1955.5
123.587	2015
121.447	2112.5
119.307	2122
117.166	2285
115.026	2309
112.885	2379
110.743	2485.5
108.6	2517
106.456	2577
104.313	2546.5
102.169	2471
100.023	2404
97.8789	2237.5
95.7328	2041.5
93.5869	1773.5
91.4392	1526.5
89.2919	1222
87.1447	979.5
84.9959	764
