3528.51	125.5
3527.23	128
3525.95	140.5
3524.67	147.5
3523.39	145
3522.1	148.5
3520.82	156
3519.54	164
3518.26	165
3516.97	153.5
3515.69	168
3514.4	168
3513.12	155
3511.84	154
3510.55	152.5
3509.26	155.5
3507.98	160
3506.69	173.5
3505.41	155
3504.12	175
3502.83	164.5
3501.54	162
3500.26	167
3498.97	179.5
3497.68	176.5
3496.39	160.5
3495.1	179
3493.81	166.5
3492.52	182.5
3491.23	189
3489.94	190
3488.65	205
3487.36	201.5
3486.07	199
3484.78	198
3483.49	198
3482.19	193.5
3480.9	198
3479.61	219.5
3478.31	214.5
3477.02	226
3475.73	232
3474.43	238.5
3473.14	243.5
3471.84	221
3470.54	229
3469.25	216
3467.95	212.5
3466.66	225.5
3465.36	217.5
3464.06	222
3462.76	229.5
3461.46	232
3460.17	246
3458.87	236.5
3457.57	244
3456.27	257
3454.97	241
3453.67	222
3452.37	239.5
3451.07	231
3449.77	248.5
3448.47	263.5
3447.16	257.5
3445.86	270
3444.56	276
3443.26	273
3441.95	274
3440.65	273
3439.35	271
3438.04	270
3436.74	290.5
3435.43	286.5
3434.13	296.5
3432.82	303.5
3431.52	320
3430.21	327.5
3428.9	312.5
3427.6	308
3426.29	331
3424.98	319
3423.67	345
3422.36	332
3421.06	360
3419.75	344.5
3418.44	353.5
3417.13	368
3415.82	365
3414.51	371
3413.2	371.5
3411.88	378
3410.57	367
3409.26	376.5
3407.95	346
3406.64	381
3405.32	368.5
3404.01	381
3402.7	372
3401.38	400.5
3400.07	397.5
3398.75	406.5
3397.44	414
3396.12	401.5
3394.81	408.5
3393.49	400.5
3392.18	406
3390.86	411
3389.54	432.5
3388.23	420
3386.91	441.5
3385.59	464
3384.27	456
3382.95	451
3381.63	462
3380.31	452
3378.99	457.5
3377.67	451
3376.35	441
3375.03	474.5
3373.71	481.5
3372.39	473.5
3371.07	479
3369.75	486
3368.42	507
3367.1	485
3365.78	480
3364.45	506.5
3363.13	511.5
3361.81	496
3360.48	508
3359.16	518.5
3357.83	509
3356.51	522.5
3355.18	532
3353.85	532
3352.53	533.5
3351.2	517
3349.87	538
3348.54	534
3347.22	529.5
3345.89	532.5
3344.56	542.5
3343.23	520
3341.9	537.5
3340.57	533
3339.24	533
3337.91	536
3336.58	520.5
3335.25	548
3333.92	549.5
3332.58	545
3331.25	547
3329.92	575
3328.59	560.5
3327.25	561
3325.92	557
3324.58	568
3323.25	584
3321.92	592
3320.58	596
3319.25	574
3317.91	593
3316.57	593.5
3315.24	562.5
3313.9	573
3312.56	596
3311.23	614
3309.89	616
3308.55	607
3307.21	622.5
3305.87	600
3304.53	622.5
3303.19	612
3301.85	610
3300.51	622
3299.17	627
3297.83	615.5
3296.49	630.5
3295.15	649.5
3293.81	621.5
3292.46	644
3291.12	633
3289.78	638.5
3288.43	622.5
3287.09	627.5
3285.75	646
3284.4	655.5
3283.06	646.5
3281.71	664
3280.37	651
3279.02	656.5
3277.67	664
3276.33	679.5
3274.98	683
3273.63	697
3272.28	676
3270.94	694.5
3269.59	703
3268.24	678
3266.89	711
3265.54	728
3264.19	749.5
3262.84	733.5
3261.49	770
3260.14	755
3258.79	775.5
3257.44	788.5
3256.08	808.5
3254.73	823.5
3253.38	838.5
3252.03	845.5
3250.67	878
3249.32	902
3247.96	940
3246.61	961.5
3245.26	965
3243.9	986.5
3242.54	1025
3241.19	1039.5
3239.83	1068
3238.48	1083.5
3237.12	1145.5
3235.76	1122.5
3234.41	1137
3233.05	1175.5
3231.69	1257.5
3230.33	1262
3228.97	1275.5
3227.61	1311.5
3226.25	1339
3224.89	1334
3223.53	1358
3222.17	1364.5
3220.81	1385
3219.45	1413.5
3218.09	1423.5
3216.72	1463.5
3215.36	1457.5
3214	1473
3212.63	1457
3211.27	1494.5
3209.91	1514.5
3208.54	1500
3207.18	1507
3205.81	1502
3204.45	1558
3203.08	1553.5
3201.71	1563.5
3200.35	1541
3198.98	1572.5
3197.61	1591.5
3196.25	1573.5
3194.88	1575.5
3193.51	1602
3192.14	1595
3190.77	1582.5
3189.4	1620
3188.03	1608
3186.66	1652
3185.29	1659
3183.92	1664
3182.55	1695.5
3181.18	1658
3179.81	1683.5
3178.44	1688
3177.06	1714
3175.69	1726
3174.32	1697
3172.94	1765.5
3171.57	1746.5
3170.2	1768.5
3168.82	1796
3167.45	1785
3166.07	1823.5
3164.69	1842
3163.32	1835.5
3161.94	1861
3160.56	1881.5
3159.19	1885.5
3157.81	1884
3156.43	1889.5
3155.05	1929.5
3153.67	1897.5
3152.3	1950.5
3150.92	1950
3149.54	1994.5
3148.16	1996
3146.78	1988
3145.4	2025
3144.01	2043
3142.63	2036.5
3141.25	2056.5
3139.87	2079
3138.49	2059.5
3137.1	2127
3135.72	2095.5
3134.34	2075
3132.95	2141.5
3131.57	2137
3130.18	2159
3128.8	2173
3127.41	2166.5
3126.03	2208.5
3124.64	2262.5
3123.25	2235.5
3121.87	2264
3120.48	2293
3119.09	2279.5
3117.7	2286
3116.32	2315
3114.93	2273
3113.54	2278
3112.15	2307
3110.76	2353
3109.37	2319.5
3107.98	2344
3106.59	2369.5
3105.2	2405
3103.8	2372.5
3102.41	2406
3101.02	2400
3099.63	2397.5
3098.23	2384
3096.84	2405
3095.45	2398.5
3094.05	2465.5
3092.66	2409.5
3091.26	2488
3089.87	2464.5
3088.47	2491.5
3087.08	2460.5
3085.68	2496.5
3084.28	2486.5
3082.89	2481
3081.49	2475
3080.09	2493
3078.69	2490.5
3077.3	2527.5
3075.9	2528
3074.5	2515.5
3073.1	2513.5
3071.7	2562.5
3070.3	2559.5
3068.9	2565
3067.5	2517.5
3066.09	2561
3064.69	2590.5
3063.29	2565
3061.89	2598.5
3060.48	2604
3059.08	2585.5
3057.68	2628.5
3056.27	2635.5
3054.87	2631.5
3053.46	2622.5
3052.06	2639
3050.65	2629
3049.25	2666
3047.84	2696
3046.44	2693.5
3045.03	2685
3043.62	2674.5
3042.21	2753
3040.81	2727.5
3039.4	2726
3037.99	2738.5
3036.58	2766
3035.17	2712.5
3033.76	2749
3032.35	2772
3030.94	2791
3029.53	2747.5
3028.12	2815.5
3026.71	2812.5
3025.29	2753
3023.88	2795.5
3022.47	2847
3021.06	2781
3019.64	2793.5
3018.23	2824
3016.82	2811.5
3015.4	2844
3013.99	2858.5
3012.57	2875.5
3011.15	2843.5
3009.74	2864.5
3008.32	2846.5
3006.91	2873
3005.49	2926.5
3004.07	2903
3002.65	2910.5
3001.24	2933
2999.82	2943.5
2998.4	2935.5
2996.98	2990.5
2995.56	2997.5
2994.14	2989
2992.72	2980.5
2991.3	3041.5
2989.88	3009
2988.46	3062.5
2987.03	3083
2985.61	3099
2984.19	3091.5
2982.77	3123
2981.34	3120
2979.92	3181
2978.49	3164.5
2977.07	3188
2975.65	3232
2974.22	3198
2972.79	3236
2971.37	3267.5
2969.94	3246
2968.52	3269
2967.09	3314
2965.66	3316
2964.23	3323.5
2962.81	3334.5
2961.38	3415
2959.95	3338.5
2958.52	3393
2957.09	3382
2955.66	3418
2954.23	3414
2952.8	3416.5
2951.37	3469.5
2949.94	3394.5
2948.5	3471
2947.07	3470.5
2945.64	3495.5
2944.21	3485.5
2942.77	3518.5
2941.34	3546
2939.91	3558.5
2938.47	3575.5
2937.04	3609.5
2935.6	3570
2934.17	3692
2932.73	3664.5
2931.29	3656
2929.86	3694.5
2928.42	3701.5
2926.98	3709
2925.55	3731.5
2924.11	3769.5
2922.67	3747.5
2921.23	3808.5
2919.79	3785
2918.35	3753
2916.91	3772
2915.47	3784
2914.03	3783
2912.59	3848
2911.15	3788
2909.71	3784
2908.26	3865
2906.82	3870.5
2905.38	3881.5
2903.94	3891
2902.49	3882.5
2901.05	3881.5
2899.6	3897.5
2898.16	3928
2896.71	3917
2895.27	3958.5
2893.82	3911.5
2892.38	3969
2890.93	3943.5
2889.48	3953.5
2888.03	3942.5
2886.59	3937.5
2885.14	3989.5
2883.69	4003
2882.24	3949.5
2880.79	3947.5
2879.34	3973
2877.89	3994
2876.44	3998.5
2874.99	3958
2873.54	3971.5
2872.09	3972.5
2870.64	3961
2869.18	3996
2867.73	3984
2866.28	4013
2864.83	4006.5
2863.37	4007.5
2861.92	3989
2860.46	4030
2859.01	4038
2857.55	4020.5
2856.1	4027
2854.64	4030.5
2853.19	4075
2851.73	4006
2850.27	4066.5
2848.81	3973.5
2847.36	3985
2845.9	4014.5
2844.44	3948
2842.98	3989.5
2841.52	3917.5
2840.06	3870
2838.6	3876.5
2837.14	3793.5
2835.68	3803
2834.22	3787
2832.76	3749
2831.3	3764.5
2829.83	3745
2828.37	3736
2826.91	3682.5
2825.44	3697.5
2823.98	3658
2822.52	3662.5
2821.05	3653.5
2819.59	3658
2818.12	3587.5
2816.66	3563.5
2815.19	3616.5
2813.72	3620
2812.26	3619
2810.79	3603
2809.32	3583.5
2807.85	3556
2806.38	3560.5
2804.92	3579.5
2803.45	3563.5
2801.98	3528.5
2800.51	3534.5
2799.04	3521
2797.57	3570.5
2796.1	3478.5
2794.62	3553.5
2793.15	3540
2791.68	3529.5
2790.21	3510
2788.73	3524.5
2787.26	3510.5
2785.79	3524.5
2784.31	3511.5
2782.84	3483.5
2781.36	3537.5
2779.89	3504.5
2778.41	3481
2776.94	3539
2775.46	3522.5
2773.99	3517
2772.51	3489
2771.03	3551
2769.55	3524.5
2768.07	3525.5
2766.6	3519
2765.12	3532.5
2763.64	3523
2762.16	3505.5
2760.68	3584
2759.2	3513
2757.72	3529.5
2756.24	3496
2754.75	3544.5
2753.27	3541.5
2751.79	3550.5
2750.31	3501.5
2748.82	3458.5
2747.34	3509.5
2745.86	3499
2744.37	3514
2742.89	3523
2741.4	3521.5
2739.92	3506
2738.43	3498.5
2736.94	3491.5
2735.46	3473
2733.97	3480
2732.48	3464.5
2731	3498
2729.51	3506
2728.02	3502
2726.53	3493
2725.04	3486.5
2723.55	3494.5
2722.06	3491.5
2720.57	3473.5
2719.08	3459
2717.59	3515.5
2716.1	3497.5
2714.61	3472.5
2713.11	3482
2711.62	3463.5
2710.13	3474
2708.64	3452
2707.14	3487.5
2705.65	3434.5
2704.15	3468.5
2702.66	3443.5
2701.16	3450.5
2699.67	3422
2698.17	3410
2696.67	3421
2695.18	3429
2693.68	3419
2692.18	3430
2690.69	3382
2689.19	3419
2687.69	3367
2686.19	3386
2684.69	3335.5
2683.19	3403.5
2681.69	3384
2680.19	3344
2678.69	3351
2677.19	3315.5
2675.68	3365
2674.18	3350
2672.68	3370.5
2671.18	3343.5
2669.67	3342
2668.17	3307.5
2666.66	3315.5
2665.16	3348
2663.66	3316.5
2662.15	3341
2660.64	3287.5
2659.14	3347
2657.63	3253.5
2656.13	3329.5
2654.62	3304
2653.11	3280
2651.6	3310.5
2650.09	3279
2648.58	3294.5
2647.08	3273
2645.57	3251
2644.06	3252
2642.55	3241.5
2641.04	3262.5
2639.52	3248
2638.01	3211.5
2636.5	3222.5
2634.99	3203.5
2633.48	3176
2631.96	3145
2630.45	3195
2628.94	3125
2627.42	3147
2625.91	3196
2624.39	3165.5
2622.88	3178.5
2621.36	3159
2619.85	3164
2618.33	3121
2616.81	3173.5
2615.3	3149.5
2613.78	3161
2612.26	3093.5
2610.74	3099.5
2609.22	3140.5
2607.7	3087
2606.18	3084
2604.66	3068
2603.14	3064.5
2601.62	3034
2600.1	3036
2598.58	2998
2597.06	2960
2595.54	3031.5
2594.01	3025
2592.49	3011.5
2590.97	2989
2589.44	3026.5
2587.92	2997.5
2586.39	3034
2584.87	2983.5
2583.34	2981.5
2581.82	2997
2580.29	2989
2578.76	2991.5
2577.24	2979
2575.71	2951
2574.18	3027
2572.65	2955.5
2571.13	2988.5
2569.6	2955.5
2568.07	2958.5
2566.54	2972
2565.01	2944.5
2563.48	2962
2561.95	2959.5
2560.42	2959
2558.88	2970
2557.35	2934.5
2555.82	2906
2554.29	2914
2552.75	2921.5
2551.22	2885.5
2549.69	2897.5
2548.15	2879
2546.62	2853
2545.08	2843
2543.55	2874
2542.01	2840
2540.47	2820.5
2538.94	2808
2537.4	2810
2535.86	2776
2534.33	2791
2532.79	2820
2531.25	2827
2529.71	2798.5
2528.17	2783
2526.63	2752.5
2525.09	2758
2523.55	2737.5
2522.01	2780.5
2520.47	2760.5
2518.92	2714
2517.38	2786.5
2515.84	2729
2514.3	2717.5
2512.75	2694
2511.21	2656
2509.67	2678.5
2508.12	2660
2506.58	2666.5
2505.03	2633.5
2503.49	2597
2501.94	2583.5
2500.39	2624.5
2498.85	2611.5
2497.3	2607
2495.75	2602.5
2494.2	2556
2492.65	2567
2491.11	2603.5
2489.56	2548
2488.01	2568.5
2486.46	2555
2484.91	2572
2483.36	2544.5
2481.8	2566.5
2480.25	2544.5
2478.7	2479
2477.15	2482.5
2475.6	2514
2474.04	2519.5
2472.49	2485.5
2470.93	2450.5
2469.38	2468.5
2467.83	2439
2466.27	2468.5
2464.71	2448
2463.16	2409.5
2461.6	2377
2460.05	2418
2458.49	2381
2456.93	2414.5
2455.37	2408
2453.81	2328
2452.26	2354.5
2450.7	2334.5
2449.14	2340.5
2447.58	2333
2446.02	2326
2444.46	2302.5
2442.9	2298
2441.33	2274
2439.77	2284.5
2438.21	2244
2436.65	2273
2435.08	2278.5
2433.52	2262
2431.96	2286
2430.39	2270.5
2428.83	2269
2427.26	2250
2425.7	2257
2424.13	2254.5
2422.56	2197
2421	2224.5
2419.43	2235.5
2417.86	2230.5
2416.3	2218.5
2414.73	2202.5
2413.16	2167.5
2411.59	2193.5
2410.02	2182
2408.45	2206.5
2406.88	2175
2405.31	2213.5
2403.74	2152.5
2402.17	2189
2400.6	2171
2399.02	2170.5
2397.45	2132
2395.88	2152
2394.3	2157
2392.73	2162.5
2391.16	2181
2389.58	2144
2388.01	2123
2386.43	2168.5
2384.86	2145.5
2383.28	2126.5
2381.7	2129
2380.13	2110
2378.55	2119
2376.97	2118.5
2375.39	2103.5
2373.81	2137.5
2372.23	2089
2370.65	2123
2369.07	2096
2367.49	2083.5
2365.91	2105
2364.33	2069.5
2362.75	2073.5
2361.17	2055.5
2359.59	2043
2358.01	2009.5
2356.42	2039
2354.84	2073.5
2353.25	2047.5
2351.67	2044
2350.09	2054
2348.5	2041
2346.92	2035
2345.33	2014
2343.74	2033
2342.16	2020
2340.57	1983.5
2338.98	2020
2337.39	2013.5
2335.81	1999.5
2334.22	2017.5
2332.63	1994
2331.04	1977.5
2329.45	1993.5
2327.86	1965
2326.27	1945.5
2324.68	1949
2323.09	1948.5
2321.49	2003.5
2319.9	1955
2318.31	1944.5
2316.72	1934.5
2315.12	1924.5
2313.53	1917
2311.93	1864
2310.34	1894
2308.74	1873.5
2307.15	1873.5
2305.55	1880.5
2303.96	1837.5
2302.36	1875
2300.76	1882.5
2299.17	1873.5
2297.57	1856.5
2295.97	1834
2294.37	1880.5
2292.77	1846.5
2291.17	1821.5
2289.57	1799
2287.97	1763
2286.37	1812
2284.77	1819
2283.17	1780.5
2281.57	1800
2279.96	1788.5
2278.36	1773.5
2276.76	1771.5
2275.15	1799.5
2273.55	1720.5
2271.95	1745
2270.34	1748.5
2268.74	1754
2267.13	1732
2265.52	1729
2263.92	1740.5
2262.31	1725
2260.7	1707
2259.1	1704.5
2257.49	1708.5
2255.88	1710.5
2254.27	1701
2252.66	1684
2251.05	1693
2249.44	1679.5
2247.83	1703.5
2246.22	1693.5
2244.61	1695.5
2243	1688
2241.39	1650
2239.77	1639.5
2238.16	1692.5
2236.55	1668
2234.93	1659
2233.32	1632
2231.7	1646
2230.09	1623
2228.47	1646
2226.86	1639
2225.24	1602.5
2223.63	1635.5
2222.01	1611
2220.39	1590.5
2218.77	1599.5
2217.16	1590
2215.54	1579.5
2213.92	1563.5
2212.3	1571.5
2210.68	1569
2209.06	1556.5
2207.44	1540.5
2205.82	1541.5
2204.19	1544.5
2202.57	1538
2200.95	1523.5
2199.33	1530
2197.7	1539.5
2196.08	1528.5
2194.46	1535.5
2192.83	1515
2191.21	1510.5
2189.58	1509
2187.96	1487
2186.33	1519.5
2184.7	1500.5
2183.08	1510
2181.45	1471
2179.82	1455
2178.19	1445.5
2176.57	1467
2174.94	1448.5
2173.31	1444.5
2171.68	1449
2170.05	1457.5
2168.42	1444.5
2166.79	1412
2165.16	1434.5
2163.52	1411
2161.89	1422.5
2160.26	1395
2158.63	1409
2156.99	1398.5
2155.36	1406.5
2153.73	1395
2152.09	1371
2150.46	1390
2148.82	1373.5
2147.18	1349
2145.55	1336
2143.91	1352
2142.27	1335
2140.64	1331.5
2139	1338.5
2137.36	1301.5
2135.72	1325.5
2134.08	1331.5
2132.44	1331
2130.8	1313
2129.16	1288
2127.52	1277.5
2125.88	1274
2124.24	1250.5
2122.6	1243
2120.95	1264.5
2119.31	1264.5
2117.67	1260
2116.02	1272.5
2114.38	1239
2112.74	1226
2111.09	1215
2109.45	1200
2107.8	1207
2106.15	1237
2104.51	1193
2102.86	1192.5
2101.21	1208.5
2099.56	1197.5
2097.92	1198.5
2096.27	1232.5
2094.62	1175.5
2092.97	1190
2091.32	1174
2089.67	1186
2088.02	1174.5
2086.37	1180.5
2084.72	1171
2083.06	1187.5
2081.41	1171.5
2079.76	1150.5
2078.1	1169
2076.45	1163.5
2074.8	1164.5
2073.14	1154
2071.49	1127.5
2069.83	1141.5
2068.18	1134
2066.52	1141.5
2064.86	1147
2063.21	1123.5
2061.55	1135
2059.89	1126.5
2058.23	1138
2056.57	1136.5
2054.92	1128.5
2053.26	1107.5
2051.6	1105.5
2049.94	1097.5
2048.27	1108
2046.61	1100
2044.95	1095.5
2043.29	1113.5
2041.63	1120.5
2039.97	1082.5
2038.3	1080.5
2036.64	1084.5
2034.97	1083.5
2033.31	1058.5
2031.64	1062
2029.98	1041.5
2028.31	1058
2026.65	1020.5
2024.98	1040
2023.31	1036
2021.65	1029.5
2019.98	1014.5
2018.31	1011
2016.64	1007
2014.97	1021.5
2013.3	1009
2011.63	991.5
2009.96	972.5
2008.29	1005.5
2006.62	988
2004.95	989.5
2003.28	998
2001.6	978.5
1999.93	987.5
1998.26	991.5
1996.58	981
1994.91	988
1993.24	966.5
1991.56	961
1989.89	970
1988.21	951
1986.53	940.5
1984.86	949
1983.18	992.5
1981.5	949
1979.82	948
1978.15	946.5
1976.47	957
1974.79	911.5
1973.11	915
1971.43	906.5
1969.75	900.5
1968.07	933.5
1966.38	910
1964.7	906
1963.02	921
1961.34	898
1959.66	897.5
1957.97	894
1956.29	895.5
1954.6	875.5
1952.92	867
1951.23	882.5
1949.55	877
1947.86	857.5
1946.18	880
1944.49	868.5
1942.8	857
1941.11	874.5
1939.43	854.5
1937.74	863
1936.05	812.5
1934.36	850.5
1932.67	851.5
1930.98	815.5
1929.29	837
1927.6	818
1925.91	802.5
1924.21	822
1922.52	825.5
1920.83	792
1919.14	797.5
1917.44	806
1915.75	805.5
1914.05	784.5
1912.36	804
1910.66	802
1908.97	780
1907.27	802
1905.58	784.5
1903.88	784
1902.18	798.5
1900.48	770.5
1898.79	772
1897.09	774.5
1895.39	765
1893.69	750.5
1891.99	750
1890.29	761
1888.59	760
1886.89	746.5
1885.18	746.5
1883.48	743.5
1881.78	735.5
1880.08	732
1878.37	712
1876.67	682
1874.96	709
1873.26	703
1871.55	709.5
1869.85	716.5
1868.14	692.5
1866.44	704
1864.73	697
1863.02	708.5
1861.32	703
1859.61	702
1857.9	671.5
1856.19	662.5
1854.48	679
1852.77	669.5
1851.06	676.5
1849.35	681.5
1847.64	678.5
1845.93	682
1844.21	689
1842.5	675
1840.79	647
1839.08	664
1837.36	658
1835.65	651
1833.93	648.5
1832.22	653
1830.5	641.5
1828.79	646.5
1827.07	636.5
1825.36	637.5
1823.64	643.5
1821.92	621
1820.2	627
1818.48	655.5
1816.77	607
1815.05	623
1813.33	612.5
1811.61	618
1809.89	617
1808.16	618
1806.44	626
1804.72	608.5
1803	605.5
1801.28	608
1799.55	594
1797.83	587
1796.11	574
1794.38	581.5
1792.66	595
1790.93	600.5
1789.21	602
1787.48	592.5
1785.75	588.5
1784.03	577.5
1782.3	602.5
1780.57	569.5
1778.84	568
1777.11	564
1775.38	588.5
1773.66	576.5
1771.93	577
1770.19	586
1768.46	566.5
1766.73	601
1765	590
1763.27	580
1761.54	609
1759.8	615.5
1758.07	619.5
1756.34	640
1754.6	651.5
1752.87	665
1751.13	684.5
1749.4	672.5
1747.66	712
1745.92	678
1744.19	684.5
1742.45	656
1740.71	662.5
1738.97	639
1737.23	615.5
1735.49	608.5
1733.75	589.5
1732.01	597
1730.27	579
1728.53	554
1726.79	567
1725.05	559
1723.31	563
1721.57	529
1719.82	528.5
1718.08	542
1716.34	511.5
1714.59	524.5
1712.85	530
1711.1	531
1709.36	530
1707.61	528
1705.86	511
1704.12	518
1702.37	494
1700.62	503
1698.87	489
1697.12	480.5
1695.37	495
1693.62	482
1691.87	505
1690.12	503.5
1688.37	493.5
1686.62	504
1684.87	498
1683.12	509
1681.36	508
1679.61	491
1677.86	514
1676.1	525
1674.35	529
1672.59	550.5
1670.84	579
1669.08	611.5
1667.33	634
1665.57	657.5
1663.81	714
1662.06	762
1660.3	814
1658.54	874.5
1656.78	875.5
1655.02	858.5
1653.26	836.5
1651.5	784.5
1649.74	700.5
1647.98	659.5
1646.22	620
1644.46	579
1642.7	567
1640.93	532.5
1639.17	507
1637.41	484
1635.64	481.5
1633.88	486
1632.11	471
1630.35	465.5
1628.58	476
1626.81	457.5
1625.05	468
1623.28	447.5
1621.51	450
1619.75	430.5
1617.98	427
1616.21	424
1614.44	431.5
1612.67	447
1610.9	431.5
1609.13	437.5
1607.36	450
1605.58	437
1603.81	429.5
1602.04	416
1600.27	431.5
1598.49	420
1596.72	411.5
1594.95	410
1593.17	415
1591.4	430.5
1589.62	421
1587.84	405.5
1586.07	404.5
1584.29	419
1582.51	402.5
1580.74	426.5
1578.96	414
1577.18	395
1575.4	404.5
1573.62	392.5
1571.84	407.5
1570.06	402
1568.28	404.5
1566.5	387
1564.72	398
1562.93	405
1561.15	395
1559.37	414.5
1557.58	405
1555.8	405
1554.02	398.5
1552.23	382
1550.45	403
1548.66	389.5
1546.87	404
1545.09	402.5
1543.3	405.5
1541.51	391.5
1539.72	391
1537.94	385.5
1536.15	369
1534.36	390.5
1532.57	389
1530.78	389
1528.99	370.5
1527.2	405
1525.4	398
1523.61	406.5
1521.82	392
1520.03	385.5
1518.23	391.5
1516.44	387
1514.65	355.5
1512.85	371
1511.06	387.5
1509.26	406.5
1507.46	399
1505.67	407
1503.87	416
1502.07	430.5
1500.28	427
1498.48	432.5
1496.68	421
1494.88	431.5
1493.08	425
1491.28	444.5
1489.48	445
1487.68	472.5
1485.88	495
1484.08	510
1482.27	541
1480.47	547.5
1478.67	577
1476.86	616
1475.06	654
1473.25	706
1471.45	728.5
1469.64	808
1467.84	884
1466.03	966.5
1464.23	1017
1462.42	1077.5
1460.61	1137
1458.8	1183
1456.99	1248
1455.18	1249
1453.37	1304
1451.56	1319
1449.75	1401.5
1447.94	1453
1446.13	1483.5
1444.32	1573.5
1442.51	1626
1440.7	1588
1438.88	1540.5
1437.07	1503
1435.26	1359
1433.44	1159
1431.63	1073
1429.81	922.5
1427.99	827
1426.18	753.5
1424.36	707.5
1422.54	659.5
1420.73	655.5
1418.91	589
1417.09	573.5
1415.27	511
1413.45	506
1411.63	477.5
1409.81	477
1407.99	461
1406.17	456.5
1404.35	452
1402.53	438.5
1400.7	422
1398.88	419
1397.06	420.5
1395.23	370
1393.41	397
1391.58	367
1389.76	392
1387.93	387
1386.11	387
1384.28	389.5
1382.45	387
1380.62	405.5
1378.8	427
1376.97	420.5
1375.14	448.5
1373.31	418
1371.48	442
1369.65	447
1367.82	435
1365.99	437
1364.16	438
1362.32	428.5
1360.49	444
1358.66	450
1356.82	430.5
1354.99	431.5
1353.16	436
1351.32	429
1349.48	436
1347.65	426
1345.81	438.5
1343.98	442
1342.14	445
1340.3	455
1338.46	461.5
1336.62	465.5
1334.79	478
1332.95	484
1331.11	496.5
1329.27	533.5
1327.42	570
1325.58	610
1323.74	639.5
1321.9	676
1320.06	712
1318.21	751.5
1316.37	827.5
1314.53	868
1312.68	917.5
1310.84	978.5
1308.99	1025.5
1307.15	1117.5
1305.3	1170.5
1303.45	1171.5
1301.61	1202.5
1299.76	1199.5
1297.91	1171
1296.06	1072.5
1294.21	987.5
1292.36	903.5
1290.51	817.5
1288.66	774.5
1286.81	749
1284.96	720.5
1283.11	719.5
1281.26	686.5
1279.4	701.5
1277.55	713
1275.7	734.5
1273.84	699.5
1271.99	734.5
1270.13	737.5
1268.28	728.5
1266.42	684
1264.56	699.5
1262.71	710
1260.85	680
1258.99	654.5
1257.13	650.5
1255.27	625.5
1253.41	615.5
1251.56	570.5
1249.7	543
1247.83	515
1245.97	496
1244.11	460
1242.25	475
1240.39	473.5
1238.52	471
1236.66	440
1234.8	438
1232.93	449.5
1231.07	422.5
1229.2	417
1227.34	407
1225.47	401.5
1223.6	376
1221.74	373
1219.87	358
1218	373.5
1216.13	373
1214.26	376.5
1212.39	372.5
1210.53	363
1208.65	366.5
1206.78	386.5
1204.91	356.5
1203.04	355
1201.17	363
1199.3	352
1197.42	358.5
1195.55	343.5
1193.68	378
1191.8	381
1189.93	371
1188.05	374.5
1186.17	350
1184.3	380
1182.42	357
1180.54	352.5
1178.67	353
1176.79	359
1174.91	352
1173.03	366.5
1171.15	385
1169.27	375
1167.39	371
1165.51	377
1163.63	376.5
1161.75	369
1159.86	350
1157.98	371
1156.1	366.5
1154.21	353
1152.33	377
1150.44	399
1148.56	396
1146.67	390.5
1144.79	401
1142.9	412.5
1141.01	410
1139.12	424.5
1137.24	414
1135.35	430.5
1133.46	462.5
1131.57	507.5
1129.68	547.5
1127.79	591
1125.9	610.5
1124.01	572
1122.12	579.5
1120.22	578
1118.33	562
1116.44	552.5
1114.54	532.5
1112.65	535.5
1110.75	526.5
1108.86	564
1106.96	554.5
1105.07	603.5
1103.17	629
1101.27	666.5
1099.38	680.5
1097.48	697.5
1095.58	726
1093.68	743
1091.78	795
1089.88	831
1087.98	839
1086.08	890.5
1084.18	903.5
1082.28	916.5
1080.38	914
1078.47	914
1076.57	905
1074.67	849
1072.76	839
1070.86	840.5
1068.95	841
1067.05	878
1065.14	917.5
1063.24	875
1061.33	826.5
1059.42	785.5
1057.51	721
1055.6	680.5
1053.7	631
1051.79	601.5
1049.88	617.5
1047.97	576
1046.06	589
1044.14	585
1042.23	584
1040.32	603
1038.41	580
1036.5	592.5
1034.58	605.5
1032.67	587.5
1030.75	564.5
1028.84	552
1026.92	574.5
1025.01	549
1023.09	563.5
1021.17	576
1019.26	563
1017.34	551
1015.42	548.5
1013.5	549.5
1011.58	526
1009.66	507
1007.74	515
1005.82	514
1003.9	473
1001.98	493
1000.06	480.5
998.134	496.5
996.212	503
994.288	505
992.364	520
990.44	522
988.515	513
986.589	518.5
984.663	505.5
982.737	550.5
980.81	564
978.883	586
976.955	597.5
975.027	627
973.098	640
971.169	627
969.239	650
967.308	631
965.378	601
963.447	602.5
961.516	600
959.583	600
957.65	592
955.718	613
953.784	633
951.85	632
949.916	640.5
947.981	649
946.045	680
944.109	649
942.173	670
940.236	654
938.298	657.5
936.36	666.5
934.422	657
932.484	623
930.544	645.5
928.604	659
926.664	640.5
924.724	649
922.782	649.5
920.84	634
918.898	638.5
916.955	620.5
915.012	629
913.068	598
911.124	621
909.18	628.5
907.235	622.5
905.289	650.5
903.343	646
901.397	663.5
899.45	680
897.502	685
895.554	696.5
893.605	722
891.657	764
889.707	770
887.758	764
885.807	757
883.856	757
881.905	777
879.953	785.5
878.001	788.5
876.048	779.5
874.094	775
872.14	818.5
870.186	819.5
868.232	782.5
866.276	776
864.321	797.5
862.365	755.5
860.408	771
858.451	772.5
856.493	768
854.535	736
852.576	721
850.617	736
848.658	737
846.698	754.5
844.737	746.5
842.776	740.5
840.814	716
838.852	691.5
836.89	697
834.927	665
832.963	639.5
830.999	621
829.035	595
827.07	572.5
825.105	545
823.139	550
821.172	544.5
819.206	534
817.238	517
815.27	531
813.301	503
811.333	501.5
809.363	476
807.394	440
805.424	444
803.453	425
801.482	388
799.509	412.5
797.538	388
795.565	381
793.592	374
791.618	377
789.643	379
787.669	358
785.693	356
783.718	362.5
781.742	349
779.765	348
777.788	350.5
775.811	367.5
773.832	366.5
771.853	372.5
769.875	368.5
767.895	355.5
765.915	370.5
763.934	368.5
761.953	355.5
759.972	349.5
757.99	343
756.007	327
754.024	315
752.041	332
750.056	345.5
748.072	364
746.087	360.5
744.102	373.5
742.116	368.5
740.13	346
738.143	357
736.155	341.5
734.167	346
732.179	358.5
730.19	367.5
728.2	372
726.21	378
724.22	365
722.229	362
720.237	358.5
718.246	350
716.253	335
714.26	322
712.267	314
710.273	300.5
708.279	321
706.284	312.5
704.289	304.5
702.293	311
700.296	311
698.3	315
696.303	320.5
694.305	301
692.307	286.5
690.307	263
688.308	279
686.309	290.5
684.308	292.5
682.308	289
680.306	316
678.304	311
676.302	296
674.3	293.5
672.296	309.5
670.293	294
668.289	281
666.284	295
664.278	290.5
662.273	302.5
660.266	291
658.26	305
656.252	313.5
654.244	317.5
652.237	314.5
650.227	320.5
648.218	321
646.209	313
644.198	327
642.188	301
640.177	333
638.165	329
636.153	324
634.14	343
632.128	333.5
630.113	350.5
628.099	355.5
626.085	350
624.07	342.5
622.054	334.5
620.038	347
618.021	349.5
616.004	378.5
613.986	396
611.968	381.5
609.949	397
607.93	396.5
605.911	413.5
603.891	395.5
601.87	387.5
599.848	357
597.827	371
595.805	352
593.782	366
591.759	363.5
589.735	365.5
587.711	381.5
585.687	367.5
583.661	346
581.636	350.5
579.609	355.5
577.583	339
575.555	328.5
573.527	314
571.5	329
569.471	326
567.441	338.5
565.412	344
563.382	350
561.351	361.5
559.32	356.5
557.289	349.5
555.257	386.5
553.223	366
551.19	374.5
549.157	386
547.122	388
545.088	413
543.053	432.5
541.017	472
538.981	512.5
536.943	571.5
534.907	656
532.869	795
530.831	1031
528.792	1476
526.752	2192.5
524.713	3198
522.673	3967.5
520.632	3982.5
518.591	3321
516.549	2466
514.507	1750
512.464	1193.5
510.42	859
508.377	704.5
506.332	587.5
504.288	535
502.242	513
500.196	520
498.15	491.5
496.104	465.5
494.056	480
492.008	487.5
489.96	470.5
487.911	475
485.862	451
483.812	441
481.761	451.5
479.71	445
477.659	446.5
475.607	436
473.555	458.5
471.502	438
469.448	471.5
467.395	455.5
465.34	464
463.285	445.5
461.23	436
459.174	444
457.118	434
455.061	455
453.003	449
450.945	453
448.887	474.5
446.828	478.5
444.768	490
442.708	465.5
440.647	483
438.587	476
436.525	491
434.463	475.5
432.4	480
430.337	478.5
428.274	499
426.21	496
424.145	488
422.079	514.5
420.014	507.5
417.948	536.5
415.882	506
413.814	513.5
411.746	506.5
409.679	509
407.609	512
405.54	527.5
403.47	531
401.401	532.5
399.329	533
397.258	525
395.187	534.5
393.114	520
391.041	507.5
388.968	500.5
386.895	509.5
384.82	525
382.745	508.5
380.67	528
378.594	541
376.517	544.5
374.44	562
372.363	544.5
370.286	563
368.207	556
366.128	564.5
364.049	545
361.969	551
359.888	543.5
357.807	587
355.725	569
353.643	570
351.561	596.5
349.477	592.5
347.394	605.5
345.31	583.5
343.226	592.5
341.141	579
339.055	577
336.968	602
334.882	616
332.795	623
330.707	636
328.618	637
326.53	628.5
324.44	680
322.351	655
320.26	664
318.17	676
316.078	691
313.987	701
311.895	726
309.802	746.5
307.708	784.5
305.614	787
303.52	796
301.425	814.5
299.329	804.5
297.233	759
295.137	755.5
293.039	758.5
290.942	757.5
288.844	761.5
286.745	758.5
284.647	804.5
282.546	782.5
280.446	790.5
278.346	821
276.245	838
274.143	829.5
272.041	845
269.939	844.5
267.835	848
265.731	845.5
263.627	875.5
261.522	878.5
259.417	902
257.311	932
255.204	938.5
253.098	943.5
250.99	957.5
248.882	982.5
246.774	961.5
244.664	995
242.555	995
240.445	999.5
238.334	1037
236.223	1048
234.112	1091.5
232	1068.5
229.888	1088
227.775	1110.5
225.661	1096.5
223.546	1120.5
221.431	1112
219.316	1135
217.201	1109
215.084	1136.5
212.967	1156.5
210.85	1148
208.732	1169
206.614	1151.5
204.495	1158
202.375	1156
200.256	1153
198.135	1134
196.014	1136.5
193.893	1092.5
191.771	1134
189.648	1126.5
187.525	1158
185.401	1146.5
183.277	1148.5
181.152	1137.5
179.027	1162.5
176.901	1168.5
174.775	1144
172.648	1154.5
170.521	1143
168.393	1193
166.265	1209
164.136	1233
162.007	1252
159.876	1303
157.746	1291
155.615	1314.5
153.483	1361
151.351	1370
149.219	1400.5
147.086	1435
144.952	1443
142.818	1477
140.684	1538.5
138.548	1590
136.413	1668
134.276	1711.5
132.139	1731
130.002	1811
127.864	1864.5
125.725	1941
123.587	2024
121.447	2028
119.307	2149
117.166	2215.5
115.026	2312
112.885	2409
110.743	2506
108.6	2557
106.456	2609
104.313	2626
102.169	2631.5
100.023	2521.5
97.8789	2340
95.7328	2147.5
93.5869	1887.5
91.4392	1609.5
89.2919	1303
87.1447	1032
84.9959	823
