3528.51	250.25
3527.23	253.5
3525.95	255.5
3524.67	279
3523.39	282.5
3522.1	279.5
3520.82	246.5
3519.54	276.75
3518.26	296.25
3516.97	265.25
3515.69	274.5
3514.4	287
3513.12	284
3511.84	268.5
3510.55	265.25
3509.26	280.25
3507.98	279.25
3506.69	279
3505.41	284.5
3504.12	290.5
3502.83	264.5
3501.54	275.5
3500.26	315.25
3498.97	308
3497.68	290.25
3496.39	310.25
3495.1	330.75
3493.81	311.25
3492.52	333
3491.23	322
3489.94	336.5
3488.65	344
3487.36	328
3486.07	329.75
3484.78	357
3483.49	362.75
3482.19	325.75
3480.9	360.75
3479.61	379
3478.31	355.5
3477.02	370.75
3475.73	373
3474.43	373.25
3473.14	377.5
3471.84	388
3470.54	398
3469.25	415.75
3467.95	385.5
3466.66	398.25
3465.36	406
3464.06	417.75
3462.76	408.75
3461.46	415.5
3460.17	408.75
3458.87	405.25
3457.57	420.5
3456.27	397.75
3454.97	431
3453.67	405.5
3452.37	432.25
3451.07	440.25
3449.77	462.25
3448.47	450.75
3447.16	457.25
3445.86	462
3444.56	464.5
3443.26	459.5
3441.95	437.25
3440.65	472.25
3439.35	502
3438.04	511.5
3436.74	505
3435.43	524.25
3434.13	535
3432.82	521.75
3431.52	530.5
3430.21	558.25
3428.9	564
3427.6	550
3426.29	565.25
3424.98	572.25
3423.67	601
3422.36	600.25
3421.06	588.5
3419.75	603.25
3418.44	603.5
3417.13	626
3415.82	645
3414.51	648.75
3413.2	657
3411.88	629.5
3410.57	676
3409.26	689
3407.95	690.75
3406.64	660.25
3405.32	697.25
3404.01	683.25
3402.7	672.75
3401.38	696.25
3400.07	724
3398.75	687.25
3397.44	683
3396.12	699
3394.81	742
3393.49	733
3392.18	721.5
3390.86	743.75
3389.54	718
3388.23	759
3386.91	776.5
3385.59	764.25
3384.27	765
3382.95	814.5
3381.63	780.5
3380.31	781.25
3378.99	797.75
3377.67	810.25
3376.35	810.5
3375.03	850.75
3373.71	816.25
3372.39	804.25
3371.07	842.5
3369.75	811
3368.42	837.5
3367.1	841
3365.78	860
3364.45	876.75
3363.13	896.25
3361.81	891.75
3360.48	904
3359.16	893
3357.83	879.5
3356.51	910.75
3355.18	942.25
3353.85	904.5
3352.53	923.5
3351.2	922.75
3349.87	902.25
3348.54	950.25
3347.22	959.5
3345.89	930
3344.56	924.25
3343.23	946.75
3341.9	947.25
3340.57	931.25
3339.24	942.75
3337.91	963.75
3336.58	972.25
3335.25	967.25
3333.92	965
3332.58	956.5
3331.25	968.5
3329.92	995.25
3328.59	948
3327.25	970.5
3325.92	987.5
3324.58	1008.5
3323.25	981
3321.92	1016
3320.58	1007.75
3319.25	996
3317.91	1025.25
3316.57	1029.75
3315.24	1029.75
3313.9	1035.5
3312.56	1012.5
3311.23	1017.5
3309.89	1061
3308.55	1047.25
3307.21	1033.5
3305.87	1043.5
3304.53	1061.5
3303.19	1064.5
3301.85	1076.25
3300.51	1089.25
3299.17	1056
3297.83	1058.5
3296.49	1074
3295.15	1122.75
3293.81	1100.75
3292.46	1105.5
3291.12	1124.75
3289.78	1111.5
3288.43	1109
3287.09	1107.75
3285.75	1120
3284.4	1132.75
3283.06	1122.75
3281.71	1138.75
3280.37	1171
3279.02	1134.5
3277.67	1175.5
3276.33	1125.5
3274.98	1182.5
3273.63	1152.25
3272.28	1151.75
3270.94	1187.5
3269.59	1162
3268.24	1202.25
3266.89	1225.25
3265.54	1224.5
3264.19	1223.25
3262.84	1203.75
3261.49	1249
3260.14	1332.25
3258.79	1328
3257.44	1369.5
3256.08	1354
3254.73	1378
3253.38	1393.25
3252.03	1413.5
3250.67	1471.75
3249.32	1505.75
3247.96	1495.75
3246.61	1541
3245.26	1600.75
3243.9	1626.25
3242.54	1683.75
3241.19	1690.25
3239.83	1754.25
3238.48	1803.25
3237.12	1858
3235.76	1910
3234.41	1930.75
3233.05	1976.5
3231.69	2030.5
3230.33	2101
3228.97	2142.25
3227.61	2197.5
3226.25	2210.5
3224.89	2244.75
3223.53	2288
3222.17	2332
3220.81	2336.25
3219.45	2375
3218.09	2442
3216.72	2446.75
3215.36	2471.75
3214	2496.5
3212.63	2553.75
3211.27	2532.25
3209.91	2564
3208.54	2585.5
3207.18	2572.5
3205.81	2565.25
3204.45	2647.5
3203.08	2656.25
3201.71	2637
3200.35	2662.75
3198.98	2653
3197.61	2710
3196.25	2681.75
3194.88	2698.25
3193.51	2717.25
3192.14	2764.25
3190.77	2751.5
3189.4	2740.5
3188.03	2804.75
3186.66	2762.5
3185.29	2766.75
3183.92	2770.25
3182.55	2839.5
3181.18	2841.5
3179.81	2867.5
3178.44	2851.25
3177.06	2913.25
3175.69	2897.25
3174.32	2940.5
3172.94	2985.75
3171.57	2986.25
3170.2	3001.75
3168.82	3026.25
3167.45	3026.5
3166.07	3061.5
3164.69	3038.25
3163.32	3114
3161.94	3137
3160.56	3156
3159.19	3136.5
3157.81	3141
3156.43	3178.25
3155.05	3212.25
3153.67	3301.5
3152.3	3303
3150.92	3335.75
3149.54	3376.75
3148.16	3363.25
3146.78	3379.75
3145.4	3377.75
3144.01	3438.75
3142.63	3451
3141.25	3434.75
3139.87	3505.75
3138.49	3526
3137.1	3508.75
3135.72	3529.25
3134.34	3521
3132.95	3579
3131.57	3587
3130.18	3667.25
3128.8	3713
3127.41	3632
3126.03	3724
3124.64	3727.75
3123.25	3766.5
3121.87	3782.25
3120.48	3793.75
3119.09	3841.25
3117.7	3827.5
3116.32	3880.5
3114.93	3843
3113.54	3916
3112.15	3913.75
3110.76	3920
3109.37	3947
3107.98	3981
3106.59	3970.75
3105.2	4010
3103.8	4024.5
3102.41	4032.75
3101.02	4068.25
3099.63	4067.25
3098.23	4093.5
3096.84	4119
3095.45	4102.5
3094.05	4134.75
3092.66	4143.5
3091.26	4164.25
3089.87	4169.75
3088.47	4160.25
3087.08	4224
3085.68	4173.5
3084.28	4230.25
3082.89	4251.75
3081.49	4231.75
3080.09	4298.75
3078.69	4255.5
3077.3	4331.75
3075.9	4253.25
3074.5	4282
3073.1	4355
3071.7	4356
3070.3	4356.75
3068.9	4347.75
3067.5	4359.75
3066.09	4320.25
3064.69	4376.25
3063.29	4440.75
3061.89	4420
3060.48	4426.5
3059.08	4455
3057.68	4442.25
3056.27	4436.5
3054.87	4438.25
3053.46	4451.5
3052.06	4543.25
3050.65	4556.25
3049.25	4527
3047.84	4505.25
3046.44	4543.75
3045.03	4560.25
3043.62	4544
3042.21	4532.25
3040.81	4589.5
3039.4	4576.75
3037.99	4594.75
3036.58	4622.25
3035.17	4664
3033.76	4678
3032.35	4652.5
3030.94	4689
3029.53	4662
3028.12	4692.25
3026.71	4693.75
3025.29	4710.5
3023.88	4745.75
3022.47	4694.75
3021.06	4721.75
3019.64	4724.5
3018.23	4739
3016.82	4698
3015.4	4769.25
3013.99	4756.25
3012.57	4778.25
3011.15	4780.75
3009.74	4802.25
3008.32	4804.25
3006.91	4871
3005.49	4870.75
3004.07	4851.75
3002.65	4896.75
3001.24	4860.75
2999.82	4909.25
2998.4	4939.75
2996.98	4973.75
2995.56	4918
2994.14	4987.75
2992.72	4956.5
2991.3	5013.5
2989.88	5094.75
2988.46	5076.75
2987.03	5095.75
2985.61	5141.25
2984.19	5141.25
2982.77	5143.25
2981.34	5196.75
2979.92	5253.5
2978.49	5269
2977.07	5285.5
2975.65	5303.75
2974.22	5362.5
2972.79	5358.5
2971.37	5426.75
2969.94	5455
2968.52	5419.5
2967.09	5491.5
2965.66	5474.5
2964.23	5469.75
2962.81	5503
2961.38	5552.25
2959.95	5554.5
2958.52	5502.5
2957.09	5556.25
2955.66	5580.75
2954.23	5618
2952.8	5621
2951.37	5638.5
2949.94	5605
2948.5	5598.75
2947.07	5685.25
2945.64	5659.75
2944.21	5701.75
2942.77	5662.5
2941.34	5727
2939.91	5684
2938.47	5734.5
2937.04	5719.75
2935.6	5830.25
2934.17	5815.5
2932.73	5870.25
2931.29	5917.5
2929.86	5866.25
2928.42	5884.25
2926.98	5932
2925.55	5924.5
2924.11	5929.75
2922.67	5937
2921.23	5926.75
2919.79	5973.25
2918.35	6023
2916.91	5994.75
2915.47	6033.75
2914.03	6001.25
2912.59	6026.5
2911.15	6102.75
2909.71	6050.5
2908.26	6019.25
2906.82	6054
2905.38	6085
2903.94	6120.75
2902.49	6154.5
2901.05	6144.75
2899.6	6137.25
2898.16	6147.25
2896.71	6183
2895.27	6140.5
2893.82	6183.25
2892.38	6176.5
2890.93	6194
2889.48	6134.75
2888.03	6234
2886.59	6199.5
2885.14	6197.5
2883.69	6162
2882.24	6211.75
2880.79	6247.25
2879.34	6210
2877.89	6279
2876.44	6277.75
2874.99	6217.25
2873.54	6252.75
2872.09	6261
2870.64	6278
2869.18	6278.75
2867.73	6317.25
2866.28	6289.25
2864.83	6308.25
2863.37	6264.25
2861.92	6381
2860.46	6299
2859.01	6293.5
2857.55	6317
2856.1	6358
2854.64	6354.5
2853.19	6380.25
2851.73	6309.5
2850.27	6367.25
2848.81	6354.25
2847.36	6304
2845.9	6280.75
2844.44	6287.5
2842.98	6282.75
2841.52	6248.75
2840.06	6277.75
2838.6	6250.75
2837.14	6116
2835.68	6106.5
2834.22	6098.75
2832.76	6124.5
2831.3	6052.75
2829.83	6092.75
2828.37	6070.25
2826.91	6049.25
2825.44	6008
2823.98	6011
2822.52	5978.5
2821.05	5965.25
2819.59	5980.75
2818.12	5980.75
2816.66	5970.5
2815.19	5984.25
2813.72	5936.5
2812.26	5928.75
2810.79	5949.25
2809.32	5920.5
2807.85	5877.75
2806.38	5912
2804.92	5905.75
2803.45	5869.75
2801.98	5906
2800.51	5937
2799.04	5883.75
2797.57	5906
2796.1	5810.25
2794.62	5877
2793.15	5811.75
2791.68	5865.25
2790.21	5876.25
2788.73	5849.25
2787.26	5823
2785.79	5835.25
2784.31	5773.25
2782.84	5857
2781.36	5929.25
2779.89	5890.25
2778.41	5847.25
2776.94	5893.5
2775.46	5934
2773.99	5907.75
2772.51	5909.75
2771.03	5893
2769.55	5933
2768.07	5951.25
2766.6	5910
2765.12	5946
2763.64	6029.75
2762.16	5952.25
2760.68	5951.75
2759.2	5999.5
2757.72	5966.75
2756.24	5928.5
2754.75	5948.5
2753.27	5942
2751.79	5913.5
2750.31	5954
2748.82	5918.5
2747.34	5971
2745.86	5915.75
2744.37	5896.75
2742.89	5907.25
2741.4	5939.5
2739.92	5913.25
2738.43	5928.5
2736.94	5869.25
2735.46	5887
2733.97	5902
2732.48	5896
2731	5910
2729.51	5848.25
2728.02	5884.75
2726.53	5926.75
2725.04	5834
2723.55	5869.25
2722.06	5802.25
2720.57	5863.75
2719.08	5893
2717.59	5859.75
2716.1	5894
2714.61	5904.5
2713.11	5837.75
2711.62	5870.25
2710.13	5867
2708.64	5814.25
2707.14	5846
2705.65	5846.25
2704.15	5779.25
2702.66	5783.25
2701.16	5819
2699.67	5804.25
2698.17	5780.5
2696.67	5789.75
2695.18	5768.75
2693.68	5810.75
2692.18	5809.75
2690.69	5758.5
2689.19	5792.5
2687.69	5724.75
2686.19	5730.75
2684.69	5802
2683.19	5757.25
2681.69	5665
2680.19	5663
2678.69	5686.75
2677.19	5655.25
2675.68	5674
2674.18	5618.25
2672.68	5598
2671.18	5666
2669.67	5567.25
2668.17	5650.25
2666.66	5620.5
2665.16	5556
2663.66	5571.25
2662.15	5587.5
2660.64	5607.75
2659.14	5510.5
2657.63	5586.25
2656.13	5498.25
2654.62	5560.5
2653.11	5513.25
2651.6	5484.5
2650.09	5525
2648.58	5530.75
2647.08	5479
2645.57	5546.5
2644.06	5509.25
2642.55	5519.75
2641.04	5524
2639.52	5463.25
2638.01	5420.5
2636.5	5445.5
2634.99	5452.25
2633.48	5415
2631.96	5349.5
2630.45	5295.5
2628.94	5328.5
2627.42	5403.5
2625.91	5279.25
2624.39	5294.25
2622.88	5280.5
2621.36	5306
2619.85	5277.5
2618.33	5318.25
2616.81	5250.5
2615.3	5315.5
2613.78	5270.5
2612.26	5273.5
2610.74	5310.5
2609.22	5296.5
2607.7	5248.5
2606.18	5224.5
2604.66	5204
2603.14	5238.5
2601.62	5127.5
2600.1	5169
2598.58	5094
2597.06	5147.25
2595.54	5087.5
2594.01	5091
2592.49	5084.75
2590.97	5049.75
2589.44	5060.5
2587.92	5043.25
2586.39	5078.25
2584.87	5034.75
2583.34	5044.5
2581.82	5011.5
2580.29	5035.75
2578.76	5003.5
2577.24	5020
2575.71	4999.5
2574.18	5053
2572.65	4998.5
2571.13	5012.5
2569.6	4986
2568.07	4990.5
2566.54	4923
2565.01	4997.5
2563.48	4942.25
2561.95	4936.5
2560.42	4936.5
2558.88	4940
2557.35	4921.75
2555.82	4894
2554.29	4943.5
2552.75	4867
2551.22	4885.25
2549.69	4854.75
2548.15	4860.75
2546.62	4812.5
2545.08	4860.5
2543.55	4785.5
2542.01	4832.75
2540.47	4807.5
2538.94	4780.5
2537.4	4764
2535.86	4730
2534.33	4727.5
2532.79	4710.5
2531.25	4666.5
2529.71	4673.25
2528.17	4658.5
2526.63	4624
2525.09	4634.25
2523.55	4629.25
2522.01	4611.5
2520.47	4609
2518.92	4563.25
2517.38	4597.25
2515.84	4568.75
2514.3	4557.25
2512.75	4573.75
2511.21	4551.25
2509.67	4486.25
2508.12	4493.25
2506.58	4501.75
2505.03	4518.5
2503.49	4448.75
2501.94	4452.5
2500.39	4422.5
2498.85	4488.5
2497.3	4407.5
2495.75	4395.75
2494.2	4430
2492.65	4393.5
2491.11	4398
2489.56	4361.25
2488.01	4369.5
2486.46	4325.25
2484.91	4346.5
2483.36	4338.25
2481.8	4289.75
2480.25	4299
2478.7	4285
2477.15	4242.5
2475.6	4254.5
2474.04	4215.5
2472.49	4220.25
2470.93	4223.75
2469.38	4204
2467.83	4130.5
2466.27	4156
2464.71	4110.25
2463.16	4146
2461.6	4150.25
2460.05	4082
2458.49	4090
2456.93	4020.25
2455.37	4041.75
2453.81	4005
2452.26	4029.75
2450.7	4003.5
2449.14	3990.75
2447.58	3950.5
2446.02	3932
2444.46	3916.75
2442.9	3954.75
2441.33	3935.5
2439.77	3928
2438.21	3899.75
2436.65	3850.25
2435.08	3883
2433.52	3853.75
2431.96	3805.25
2430.39	3832.25
2428.83	3837
2427.26	3820.75
2425.7	3844.25
2424.13	3832
2422.56	3771
2421	3801.25
2419.43	3738
2417.86	3743
2416.3	3741.5
2414.73	3703.25
2413.16	3725.75
2411.59	3706.25
2410.02	3753
2408.45	3670.75
2406.88	3667.5
2405.31	3667.25
2403.74	3679
2402.17	3668
2400.6	3700
2399.02	3676.5
2397.45	3652.5
2395.88	3636.25
2394.3	3639.75
2392.73	3647.5
2391.16	3591
2389.58	3602
2388.01	3599.75
2386.43	3563
2384.86	3616
2383.28	3565
2381.7	3582.75
2380.13	3574.75
2378.55	3527.25
2376.97	3586.75
2375.39	3557.25
2373.81	3553.5
2372.23	3562.25
2370.65	3528.25
2369.07	3560.75
2367.49	3529.5
2365.91	3527.75
2364.33	3524
2362.75	3506
2361.17	3510.75
2359.59	3467.75
2358.01	3429.5
2356.42	3443.25
2354.84	3444.25
2353.25	3422.75
2351.67	3383
2350.09	3430.5
2348.5	3418.25
2346.92	3429.75
2345.33	3445.75
2343.74	3386.25
2342.16	3399
2340.57	3392.5
2338.98	3382.25
2337.39	3382
2335.81	3350
2334.22	3319.75
2332.63	3381
2331.04	3334
2329.45	3341.5
2327.86	3303.5
2326.27	3323.5
2324.68	3284.25
2323.09	3275.25
2321.49	3315
2319.9	3323
2318.31	3239
2316.72	3236.75
2315.12	3243.75
2313.53	3190
2311.93	3174.75
2310.34	3228.75
2308.74	3225.5
2307.15	3149.25
2305.55	3209.75
2303.96	3129.5
2302.36	3138.5
2300.76	3128.5
2299.17	3112.5
2297.57	3123.5
2295.97	3077.75
2294.37	3095.5
2292.77	3047.5
2291.17	3059.75
2289.57	3048.75
2287.97	3053.75
2286.37	3046.5
2284.77	3029.25
2283.17	3025.5
2281.57	3024.25
2279.96	3012.25
2278.36	3028.75
2276.76	2995.5
2275.15	2961
2273.55	2999.5
2271.95	2981.5
2270.34	2970.5
2268.74	2916.5
2267.13	2912.75
2265.52	2920.75
2263.92	2883.5
2262.31	2894
2260.7	2895
2259.1	2896.5
2257.49	2874
2255.88	2876.5
2254.27	2810.75
2252.66	2854
2251.05	2859
2249.44	2842.25
2247.83	2778.25
2246.22	2852.75
2244.61	2798.5
2243	2823.25
2241.39	2797.25
2239.77	2801.75
2238.16	2798.25
2236.55	2782.5
2234.93	2764.5
2233.32	2732
2231.7	2734.25
2230.09	2737.25
2228.47	2702
2226.86	2733.75
2225.24	2713
2223.63	2656
2222.01	2708
2220.39	2670.5
2218.77	2664
2217.16	2655.25
2215.54	2642
2213.92	2614.25
2212.3	2625
2210.68	2596.25
2209.06	2601.75
2207.44	2585
2205.82	2579.75
2204.19	2552.25
2202.57	2571.75
2200.95	2595.25
2199.33	2562.75
2197.7	2555.25
2196.08	2539.75
2194.46	2551.25
2192.83	2510.25
2191.21	2519.5
2189.58	2507.5
2187.96	2516
2186.33	2475.25
2184.7	2503.75
2183.08	2480
2181.45	2479
2179.82	2453.5
2178.19	2480.25
2176.57	2440.75
2174.94	2408.75
2173.31	2382
2171.68	2434
2170.05	2413.75
2168.42	2423.75
2166.79	2398
2165.16	2400.75
2163.52	2404
2161.89	2344.75
2160.26	2384.5
2158.63	2332
2156.99	2339.25
2155.36	2339.75
2153.73	2328.75
2152.09	2329.25
2150.46	2320.25
2148.82	2265.25
2147.18	2297
2145.55	2256.5
2143.91	2289.25
2142.27	2258.75
2140.64	2235
2139	2260.75
2137.36	2233.5
2135.72	2244.25
2134.08	2202.5
2132.44	2231
2130.8	2184
2129.16	2163.5
2127.52	2170.5
2125.88	2171.75
2124.24	2128.25
2122.6	2159.5
2120.95	2145.5
2119.31	2120.25
2117.67	2085.75
2116.02	2110.25
2114.38	2082
2112.74	2065.5
2111.09	2048.5
2109.45	2085.25
2107.8	2091.25
2106.15	2092
2104.51	2033.5
2102.86	2010
2101.21	2016.5
2099.56	2024.25
2097.92	2018.25
2096.27	1966.25
2094.62	2014.75
2092.97	1998
2091.32	2025
2089.67	1997.25
2088.02	2003.25
2086.37	2001
2084.72	1950.25
2083.06	2006
2081.41	1932.75
2079.76	1962.75
2078.1	1965.75
2076.45	1944.75
2074.8	1919.75
2073.14	1985.25
2071.49	1927
2069.83	1958.75
2068.18	1905.75
2066.52	1923.25
2064.86	1914.75
2063.21	1904.75
2061.55	1913
2059.89	1897.75
2058.23	1902
2056.57	1904.75
2054.92	1899.25
2053.26	1864
2051.6	1898
2049.94	1910.5
2048.27	1847.5
2046.61	1838.75
2044.95	1861.25
2043.29	1866.75
2041.63	1861
2039.97	1809.25
2038.3	1824
2036.64	1808.5
2034.97	1800.5
2033.31	1794.5
2031.64	1747.5
2029.98	1737.5
2028.31	1754
2026.65	1772.5
2024.98	1734.25
2023.31	1723.5
2021.65	1691.75
2019.98	1689.5
2018.31	1722
2016.64	1699.75
2014.97	1693.5
2013.3	1697.25
2011.63	1689
2009.96	1666.5
2008.29	1688.5
2006.62	1662.25
2004.95	1634.5
2003.28	1661.25
2001.6	1658
1999.93	1614.75
1998.26	1624.75
1996.58	1627.5
1994.91	1649.5
1993.24	1604.5
1991.56	1619.5
1989.89	1622
1988.21	1611.75
1986.53	1573.25
1984.86	1604.5
1983.18	1598.75
1981.5	1604.5
1979.82	1583.25
1978.15	1542
1976.47	1558.75
1974.79	1559.5
1973.11	1490.25
1971.43	1542
1969.75	1498.75
1968.07	1509.25
1966.38	1478
1964.7	1458.5
1963.02	1512.25
1961.34	1513.5
1959.66	1480.75
1957.97	1482
1956.29	1469
1954.6	1486
1952.92	1465.75
1951.23	1489.5
1949.55	1457
1947.86	1427.25
1946.18	1427.5
1944.49	1448
1942.8	1424
1941.11	1422.75
1939.43	1421.25
1937.74	1398.75
1936.05	1407.75
1934.36	1384.75
1932.67	1373
1930.98	1404.5
1929.29	1388.5
1927.6	1371
1925.91	1378.25
1924.21	1372.5
1922.52	1361.5
1920.83	1330.5
1919.14	1361
1917.44	1323.75
1915.75	1303.75
1914.05	1344
1912.36	1358
1910.66	1309.25
1908.97	1290
1907.27	1358
1905.58	1303.25
1903.88	1315.75
1902.18	1296.75
1900.48	1273.5
1898.79	1291.25
1897.09	1288.5
1895.39	1258.25
1893.69	1283.5
1891.99	1264.25
1890.29	1227
1888.59	1250
1886.89	1232.5
1885.18	1217.5
1883.48	1222.75
1881.78	1211
1880.08	1199.5
1878.37	1220.75
1876.67	1208.5
1874.96	1212
1873.26	1186.5
1871.55	1161.5
1869.85	1158.5
1868.14	1162
1866.44	1135.75
1864.73	1157.25
1863.02	1171
1861.32	1147.75
1859.61	1150
1857.9	1144
1856.19	1109.25
1854.48	1122.75
1852.77	1124.75
1851.06	1116.5
1849.35	1110.25
1847.64	1117.5
1845.93	1096
1844.21	1125
1842.5	1095.5
1840.79	1091.75
1839.08	1069.5
1837.36	1059.5
1835.65	1067.25
1833.93	1073.5
1832.22	1030.5
1830.5	1081.5
1828.79	1073.75
1827.07	1031.75
1825.36	1029
1823.64	1064.75
1821.92	1035.25
1820.2	1000
1818.48	1019.5
1816.77	1018.5
1815.05	1022.5
1813.33	1023.5
1811.61	1000.5
1809.89	1013.25
1808.16	1041.75
1806.44	992
1804.72	998.5
1803	970.5
1801.28	971.75
1799.55	1008
1797.83	923.5
1796.11	981.25
1794.38	948.5
1792.66	951
1790.93	959.25
1789.21	965.75
1787.48	949
1785.75	974.5
1784.03	919.75
1782.3	935.75
1780.57	935.5
1778.84	915.25
1777.11	916.25
1775.38	927.25
1773.66	925
1771.93	925.75
1770.19	926.75
1768.46	917.5
1766.73	935.25
1765	918.75
1763.27	931.75
1761.54	909.75
1759.8	952.75
1758.07	965
1756.34	978
1754.6	979
1752.87	957.75
1751.13	982.25
1749.4	986.5
1747.66	961
1745.92	992.75
1744.19	999
1742.45	974.5
1740.71	971.25
1738.97	954
1737.23	921.75
1735.49	914.25
1733.75	924.25
1732.01	907.5
1730.27	931
1728.53	883.75
1726.79	896.75
1725.05	871
1723.31	875.5
1721.57	811.5
1719.82	864.25
1718.08	825.5
1716.34	832
1714.59	793.25
1712.85	843.25
1711.1	821
1709.36	833.25
1707.61	792.75
1705.86	816
1704.12	866.5
1702.37	797.5
1700.62	780.25
1698.87	774.25
1697.12	800.5
1695.37	785.5
1693.62	764.5
1691.87	774.75
1690.12	771
1688.37	772.5
1686.62	742
1684.87	778
1683.12	771.75
1681.36	735
1679.61	786.25
1677.86	779.75
1676.1	792
1674.35	797.75
1672.59	802.75
1670.84	811.25
1669.08	817.75
1667.33	856.5
1665.57	863.25
1663.81	927.5
1662.06	954
1660.3	1008.25
1658.54	1025.5
1656.78	1048.25
1655.02	1023.75
1653.26	1002.5
1651.5	989.5
1649.74	948.5
1647.98	849.5
1646.22	864
1644.46	803.75
1642.7	768.25
1640.93	746
1639.17	742.75
1637.41	761.5
1635.64	746.5
1633.88	714
1632.11	699.75
1630.35	736.75
1628.58	661.5
1626.81	709
1625.05	685.25
1623.28	671
1621.51	661.75
1619.75	677.25
1617.98	689.25
1616.21	669.5
1614.44	648
1612.67	680.25
1610.9	660
1609.13	630.25
1607.36	652.75
1605.58	666
1603.81	674
1602.04	649.25
1600.27	639.5
1598.49	634
1596.72	645.75
1594.95	633
1593.17	641.5
1591.4	620.75
1589.62	640
1587.84	626.5
1586.07	633.5
1584.29	637.75
1582.51	631.75
1580.74	620.5
1578.96	605.75
1577.18	640.25
1575.4	591.25
1573.62	608.5
1571.84	651.25
1570.06	593.5
1568.28	575.25
1566.5	605
1564.72	621.5
1562.93	594.5
1561.15	558
1559.37	596.5
1557.58	593.5
1555.8	588.75
1554.02	596.75
1552.23	607.25
1550.45	584.25
1548.66	612.75
1546.87	565.25
1545.09	569.75
1543.3	588
1541.51	529
1539.72	585.5
1537.94	574.5
1536.15	591.5
1534.36	545.75
1532.57	555
1530.78	578
1528.99	579.25
1527.2	527
1525.4	555.75
1523.61	558.25
1521.82	571.5
1520.03	577
1518.23	581
1516.44	564.25
1514.65	539
1512.85	584.5
1511.06	568.75
1509.26	579.5
1507.46	584.5
1505.67	553.75
1503.87	559.75
1502.07	591
1500.28	560
1498.48	566.75
1496.68	583.5
1494.88	557.25
1493.08	562.5
1491.28	595.75
1489.48	604
1487.68	604.75
1485.88	632.5
1484.08	646.5
1482.27	646.5
1480.47	644
1478.67	652.25
1476.86	728
1475.06	744.75
1473.25	757
1471.45	832.25
1469.64	874.5
1467.84	915.75
1466.03	931.5
1464.23	1032
1462.42	1054
1460.61	1134
1458.8	1161.75
1456.99	1196.75
1455.18	1200.75
1453.37	1239.25
1451.56	1258.75
1449.75	1289
1447.94	1383.25
1446.13	1402.5
1444.32	1448
1442.51	1503
1440.7	1486.25
1438.88	1417.5
1437.07	1384.5
1435.26	1304.5
1433.44	1189
1431.63	1054.25
1429.81	959.75
1427.99	864
1426.18	812.25
1424.36	778.25
1422.54	745.5
1420.73	706
1418.91	670.25
1417.09	633.25
1415.27	623.25
1413.45	582
1411.63	590.5
1409.81	596.75
1407.99	537
1406.17	560.25
1404.35	545
1402.53	543.25
1400.7	537.25
1398.88	491
1397.06	520.75
1395.23	479.5
1393.41	485.75
1391.58	505.25
1389.76	516.5
1387.93	498.25
1386.11	500.5
1384.28	478
1382.45	491
1380.62	491.5
1378.8	515.25
1376.97	485.25
1375.14	524.75
1373.31	524
1371.48	533.25
1369.65	513.25
1367.82	509
1365.99	525.25
1364.16	517.25
1362.32	496.75
1360.49	510.5
1358.66	523
1356.82	502
1354.99	513.5
1353.16	482.75
1351.32	513.25
1349.48	502.75
1347.65	495.25
1345.81	525.25
1343.98	527.75
1342.14	509.25
1340.3	490
1338.46	509
1336.62	523
1334.79	555
1332.95	556.25
1331.11	603.75
1329.27	581
1327.42	613
1325.58	636.75
1323.74	667
1321.9	672.75
1320.06	683.5
1318.21	728.25
1316.37	771.5
1314.53	834.5
1312.68	890
1310.84	915.5
1308.99	965.5
1307.15	993.25
1305.3	1072
1303.45	1129.25
1301.61	1114
1299.76	1115.5
1297.91	1073.75
1296.06	1031
1294.21	978.25
1292.36	885.25
1290.51	830.25
1288.66	767.5
1286.81	752.75
1284.96	722
1283.11	704.25
1281.26	697
1279.4	699.75
1277.55	699.25
1275.7	695
1273.84	709.5
1271.99	721
1270.13	726.5
1268.28	737
1266.42	691.75
1264.56	687
1262.71	700.5
1260.85	673
1258.99	673.75
1257.13	651
1255.27	609.25
1253.41	612
1251.56	574.5
1249.7	589.25
1247.83	549.25
1245.97	529.75
1244.11	530.5
1242.25	526.5
1240.39	504
1238.52	511.25
1236.66	474
1234.8	467.5
1232.93	471.75
1231.07	456
1229.2	463
1227.34	449.5
1225.47	455.5
1223.6	409.25
1221.74	439.5
1219.87	424.25
1218	425.5
1216.13	399
1214.26	418.25
1212.39	428.75
1210.53	396.25
1208.65	411.5
1206.78	396.75
1204.91	436.75
1203.04	397.5
1201.17	430.75
1199.3	392.5
1197.42	407.5
1195.55	379.25
1193.68	414
1191.8	398.75
1189.93	386
1188.05	410.5
1186.17	401.25
1184.3	402.25
1182.42	426
1180.54	397.75
1178.67	414
1176.79	439.75
1174.91	413.75
1173.03	408.5
1171.15	383.5
1169.27	435.75
1167.39	420.75
1165.51	382
1163.63	394.25
1161.75	408
1159.86	410.25
1157.98	396
1156.1	430.5
1154.21	397.5
1152.33	399.25
1150.44	387
1148.56	431.5
1146.67	388.5
1144.79	448.25
1142.9	425.5
1141.01	425.25
1139.12	448.75
1137.24	457.25
1135.35	446.75
1133.46	523.25
1131.57	535
1129.68	567
1127.79	614.25
1125.9	592.75
1124.01	557.25
1122.12	592.75
1120.22	569.5
1118.33	560.5
1116.44	536.75
1114.54	523
1112.65	531.5
1110.75	511
1108.86	515.5
1106.96	549.5
1105.07	577.25
1103.17	592.75
1101.27	614.5
1099.38	628.75
1097.48	664.75
1095.58	653.5
1093.68	709
1091.78	730.75
1089.88	732.75
1087.98	729.5
1086.08	780.75
1084.18	779.25
1082.28	796
1080.38	796
1078.47	824
1076.57	775.75
1074.67	751.25
1072.76	760.25
1070.86	743.5
1068.95	804.25
1067.05	786.25
1065.14	816
1063.24	839.75
1061.33	781
1059.42	728.75
1057.51	658.5
1055.6	619
1053.7	593.5
1051.79	584.5
1049.88	575.25
1047.97	577
1046.06	545.5
1044.14	528.75
1042.23	545.75
1040.32	561
1038.41	531.25
1036.5	542.75
1034.58	526.75
1032.67	540.25
1030.75	532
1028.84	525.75
1026.92	511.25
1025.01	540.25
1023.09	533.25
1021.17	539.75
1019.26	539.75
1017.34	542.25
1015.42	547
1013.5	524
1011.58	508
1009.66	485
1007.74	501.25
1005.82	477.5
1003.9	478.25
1001.98	497.75
1000.06	474.5
998.134	483.5
996.212	484
994.288	475.5
992.364	502.25
990.44	518.5
988.515	507
986.589	527
984.663	534
982.737	525.25
980.81	574
978.883	573.75
976.955	605.5
975.027	598.5
973.098	600.75
971.169	630.25
969.239	628.25
967.308	625.25
965.378	624.25
963.447	607.5
961.516	598.5
959.583	600.5
957.65	605.75
955.718	630
953.784	636.5
951.85	619
949.916	612
947.981	627.5
946.045	664.5
944.109	663.25
942.173	657.75
940.236	668
938.298	663.5
936.36	670
934.422	658.25
932.484	636
930.544	614
928.604	595.25
926.664	627.5
924.724	589.5
922.782	602.25
920.84	607
918.898	595
916.955	593
915.012	573.5
913.068	575.25
911.124	556
909.18	587
907.235	567.25
905.289	578
903.343	571.75
901.397	587.75
899.45	590.5
897.502	624
895.554	625
893.605	663.25
891.657	694.75
889.707	686.5
887.758	710
885.807	685.25
883.856	675
881.905	679.25
879.953	667
878.001	717.75
876.048	685.25
874.094	696
872.14	715.75
870.186	692.75
868.232	705
866.276	697.25
864.321	676
862.365	678
860.408	626.5
858.451	677.5
856.493	664
854.535	673.5
852.576	650.5
850.617	683.25
848.658	651.25
846.698	674
844.737	648
842.776	647.5
840.814	614.5
838.852	623
836.89	617
834.927	583.75
832.963	589.75
830.999	566.25
829.035	544.75
827.07	547.75
825.105	499
823.139	485
821.172	525
819.206	499.5
817.238	463.25
815.27	475.5
813.301	457
811.333	447.25
809.363	436
807.394	413
805.424	426
803.453	405.75
801.482	423.5
799.509	406.5
797.538	354.5
795.565	364
793.592	379.25
791.618	357.75
789.643	335.5
787.669	342.75
785.693	362.25
783.718	364
781.742	339.75
779.765	343
777.788	373
775.811	347
773.832	326
771.853	369.5
769.875	345.25
767.895	376
765.915	351.25
763.934	338
761.953	341.5
759.972	335.25
757.99	327.5
756.007	333.5
754.024	344.5
752.041	319.25
750.056	329.25
748.072	307
746.087	341.75
744.102	328.5
742.116	343
740.13	344.75
738.143	350.75
736.155	326.5
734.167	361.25
732.179	338.75
730.19	351.75
728.2	337.75
726.21	341.5
724.22	366
722.229	340.5
720.237	316.25
718.246	324.75
716.253	330.25
714.26	326.75
712.267	331.75
710.273	306.5
708.279	308.25
706.284	316.5
704.289	287.5
702.293	290.5
700.296	282.5
698.3	306.5
696.303	271.5
694.305	273.25
692.307	301
690.307	294
688.308	302.25
686.309	315.75
684.308	293
682.308	313.25
680.306	297.5
678.304	296.5
676.302	309.25
674.3	316.5
672.296	291.5
670.293	303.25
668.289	300.75
666.284	324.25
664.278	318.25
662.273	297.25
660.266	331
658.26	269.25
656.252	332.25
654.244	293.5
652.237	308.75
650.227	325.75
648.218	345
646.209	301.5
644.198	302.5
642.188	318.5
640.177	356
638.165	331.5
636.153	341.25
634.14	314.5
632.128	329
630.113	336.5
628.099	362
626.085	351.5
624.07	320
622.054	355
620.038	370.5
618.021	375
616.004	354.5
613.986	366.25
611.968	368.5
609.949	390.75
607.93	372
605.911	382
603.891	381
601.87	389.25
599.848	379.5
597.827	347
595.805	358
593.782	357.25
591.759	352.5
589.735	357.5
587.711	359.5
585.687	345
583.661	348.25
581.636	350
579.609	337.75
577.583	308.5
575.555	334
573.527	349.75
571.5	343
569.471	323.25
567.441	337.25
565.412	333
563.382	334.5
561.351	339.75
559.32	349.25
557.289	375
555.257	374
553.223	378
551.19	381.75
549.157	382.75
547.122	406.5
545.088	437
543.053	455.75
541.017	483.25
538.981	496.25
536.943	597.5
534.907	676.25
532.869	852.5
530.831	1172.5
528.792	1648.75
526.752	2422
524.713	3686
522.673	4823
520.632	5064.5
518.591	4323
516.549	3193
514.507	2158.5
512.464	1474
510.42	1021.5
508.377	789.5
506.332	629.5
504.288	567.75
502.242	560
500.196	501.25
498.15	474.25
496.104	474.75
494.056	460.75
492.008	457.75
489.96	432.75
487.911	447.25
485.862	432.75
483.812	429.25
481.761	397.5
479.71	426.5
477.659	430.5
475.607	419.25
473.555	428.75
471.502	419.25
469.448	428.5
467.395	427
465.34	430.25
463.285	408.5
461.23	410
459.174	416.25
457.118	423.5
455.061	439.5
453.003	425
450.945	452
448.887	457.5
446.828	429.5
444.768	437.25
442.708	455.25
440.647	458.5
438.587	455.25
436.525	460.5
434.463	483.5
432.4	494.75
430.337	479
428.274	460
426.21	468
424.145	461
422.079	471.75
420.014	495.25
417.948	485.25
415.882	474.25
413.814	470
411.746	506
409.679	491.75
407.609	492.75
405.54	512.75
403.47	490.25
401.401	515
399.329	503.75
397.258	490.5
395.187	499.75
393.114	486.75
391.041	494.5
388.968	497
386.895	495
384.82	498.5
382.745	504.25
380.67	512.5
378.594	522.5
376.517	491
374.44	505.25
372.363	519.75
370.286	542.5
368.207	529
366.128	533.75
364.049	526
361.969	544
359.888	508
357.807	538.5
355.725	537.25
353.643	539
351.561	520
349.477	559
347.394	555.25
345.31	553
343.226	537.75
341.141	536.5
339.055	574.75
336.968	572
334.882	555.25
332.795	607.25
330.707	588.5
328.618	596.25
326.53	599.5
324.44	581.75
322.351	622
320.26	605
318.17	616.5
316.078	669
313.987	685.5
311.895	718.5
309.802	720.25
307.708	730.5
305.614	781
303.52	774.5
301.425	784.5
299.329	793.75
297.233	720
295.137	759.25
293.039	758
290.942	745.75
288.844	717.5
286.745	741.5
284.647	692
282.546	749.25
280.446	751.5
278.346	701
276.245	730
274.143	735.5
272.041	737
269.939	735.5
267.835	783.25
265.731	788
263.627	801.75
261.522	798
259.417	783.75
257.311	799.75
255.204	840.5
253.098	822.75
250.99	828.25
248.882	835.5
246.774	836.75
244.664	811
242.555	860.5
240.445	859
238.334	882.25
236.223	917.25
234.112	897.5
232	917.75
229.888	944.75
227.775	918
225.661	913.5
223.546	958.5
221.431	961.25
219.316	947.75
217.201	976.5
215.084	986.5
212.967	995.25
210.85	1007.5
208.732	983.75
206.614	1016
204.495	993
202.375	985.5
200.256	959.25
198.135	973
196.014	949.5
193.893	944
191.771	980.75
189.648	963
187.525	988.75
185.401	993.25
183.277	973
181.152	960
179.027	987
176.901	987.75
174.775	999.5
172.648	1018
170.521	1011
168.393	1046.5
166.265	1076
164.136	1031.5
162.007	1097.5
159.876	1083.25
157.746	1095
155.615	1123
153.483	1148
151.351	1140.75
149.219	1239
147.086	1242.5
144.952	1249
142.818	1273.75
140.684	1347.5
138.548	1375.5
136.413	1373
134.276	1439.25
132.139	1506.25
130.002	1533
127.864	1566
125.725	1672
123.587	1718.75
121.447	1754
119.307	1809
117.166	1902.5
115.026	1943
112.885	2032
110.743	2108.5
108.6	2179.75
106.456	2208.5
104.313	2251.5
102.169	2233.75
100.023	2182
97.8789	2042.25
95.7328	1908.5
93.5869	1710.25
91.4392	1444
89.2919	1164.25
87.1447	930
84.9959	713
