3528.51	260
3527.23	272
3525.95	293
3524.67	278
3523.39	278.5
3522.1	311.5
3520.82	300
3519.54	296.5
3518.26	295
3516.97	332.5
3515.69	297
3514.4	283.5
3513.12	283.5
3511.84	298
3510.55	290
3509.26	320
3507.98	289
3506.69	294
3505.41	331.5
3504.12	305
3502.83	299
3501.54	285
3500.26	303
3498.97	340
3497.68	319.5
3496.39	341
3495.1	327
3493.81	342.5
3492.52	356
3491.23	344.5
3489.94	334
3488.65	359
3487.36	358
3486.07	371
3484.78	348.5
3483.49	385
3482.19	363
3480.9	409.5
3479.61	389
3478.31	369
3477.02	377
3475.73	391.5
3474.43	403.5
3473.14	373
3471.84	398
3470.54	427.5
3469.25	422
3467.95	415.5
3466.66	422.5
3465.36	423
3464.06	417
3462.76	411
3461.46	443.5
3460.17	430.5
3458.87	443
3457.57	419
3456.27	452
3454.97	432.5
3453.67	478
3452.37	468.5
3451.07	445.5
3449.77	474.5
3448.47	484
3447.16	452.5
3445.86	470
3444.56	488
3443.26	460
3441.95	484
3440.65	507
3439.35	515
3438.04	483.5
3436.74	554
3435.43	533
3434.13	518.5
3432.82	547
3431.52	534
3430.21	520
3428.9	601
3427.6	592.5
3426.29	596.5
3424.98	582
3423.67	599.5
3422.36	628
3421.06	645.5
3419.75	644
3418.44	617
3417.13	640.5
3415.82	649.5
3414.51	658.5
3413.2	678
3411.88	670
3410.57	662
3409.26	699
3407.95	719
3406.64	708
3405.32	723.5
3404.01	702.5
3402.7	741
3401.38	718.5
3400.07	736.5
3398.75	735
3397.44	738.5
3396.12	748.5
3394.81	770
3393.49	781.5
3392.18	754
3390.86	763.5
3389.54	771
3388.23	801.5
3386.91	780.5
3385.59	800
3384.27	772
3382.95	812.5
3381.63	828
3380.31	799.5
3378.99	844
3377.67	827
3376.35	824.5
3375.03	833
3373.71	869
3372.39	893
3371.07	847
3369.75	855.5
3368.42	858
3367.1	873
3365.78	871
3364.45	922.5
3363.13	919.5
3361.81	913
3360.48	935.5
3359.16	913.5
3357.83	930
3356.51	953
3355.18	974.5
3353.85	924
3352.53	935.5
3351.2	974.5
3349.87	997
3348.54	969
3347.22	994
3345.89	937.5
3344.56	998
3343.23	939.5
3341.9	1017.5
3340.57	964.5
3339.24	966
3337.91	984
3336.58	973.5
3335.25	1018.5
3333.92	978.5
3332.58	993.5
3331.25	1020.5
3329.92	1028.5
3328.59	1022.5
3327.25	1007
3325.92	1050
3324.58	1011
3323.25	1053
3321.92	1038.5
3320.58	1035.5
3319.25	1047.5
3317.91	1083.5
3316.57	1054
3315.24	1037
3313.9	1062.5
3312.56	1079
3311.23	1079.5
3309.89	1102.5
3308.55	1090.5
3307.21	1092
3305.87	1111
3304.53	1124
3303.19	1093
3301.85	1143
3300.51	1112.5
3299.17	1120.5
3297.83	1163.5
3296.49	1138
3295.15	1181.5
3293.81	1122
3292.46	1133
3291.12	1138.5
3289.78	1125.5
3288.43	1149.5
3287.09	1186.5
3285.75	1148.5
3284.4	1177
3283.06	1211
3281.71	1168.5
3280.37	1183
3279.02	1178
3277.67	1196.5
3276.33	1206.5
3274.98	1195.5
3273.63	1244.5
3272.28	1203.5
3270.94	1220
3269.59	1220
3268.24	1243.5
3266.89	1266
3265.54	1285
3264.19	1244.5
3262.84	1264.5
3261.49	1306
3260.14	1287.5
3258.79	1308.5
3257.44	1273
3256.08	1320
3254.73	1382.5
3253.38	1380
3252.03	1406
3250.67	1382
3249.32	1467
3247.96	1477
3246.61	1540.5
3245.26	1531
3243.9	1569.5
3242.54	1617
3241.19	1623
3239.83	1658
3238.48	1752.5
3237.12	1750
3235.76	1813.5
3234.41	1837.5
3233.05	1909
3231.69	1923.5
3230.33	1951
3228.97	2025
3227.61	2065
3226.25	2080.5
3224.89	2180
3223.53	2180.5
3222.17	2166
3220.81	2319.5
3219.45	2387.5
3218.09	2345
3216.72	2449.5
3215.36	2482
3214	2497.5
3212.63	2519.5
3211.27	2530
3209.91	2565.5
3208.54	2631.5
3207.18	2611
3205.81	2661.5
3204.45	2718
3203.08	2693.5
3201.71	2780
3200.35	2752.5
3198.98	2752
3197.61	2768.5
3196.25	2733.5
3194.88	2773
3193.51	2833.5
3192.14	2834.5
3190.77	2783.5
3189.4	2858
3188.03	2809
3186.66	2859.5
3185.29	2888.5
3183.92	2911.5
3182.55	2883
3181.18	2892
3179.81	2995
3178.44	2967
3177.06	3000.5
3175.69	3021
3174.32	3024
3172.94	3030
3171.57	3095.5
3170.2	3115.5
3168.82	3124.5
3167.45	3162.5
3166.07	3140
3164.69	3125
3163.32	3175
3161.94	3213
3160.56	3277.5
3159.19	3258.5
3157.81	3332.5
3156.43	3299.5
3155.05	3391.5
3153.67	3402.5
3152.3	3407
3150.92	3437.5
3149.54	3451.5
3148.16	3508
3146.78	3487.5
3145.4	3488
3144.01	3564.5
3142.63	3609.5
3141.25	3629.5
3139.87	3652
3138.49	3629.5
3137.1	3681
3135.72	3706.5
3134.34	3679.5
3132.95	3693.5
3131.57	3777
3130.18	3800.5
3128.8	3807.5
3127.41	3848.5
3126.03	3815
3124.64	3877
3123.25	3891
3121.87	3937.5
3120.48	3932
3119.09	3986
3117.7	3983
3116.32	4023
3114.93	4033.5
3113.54	4104.5
3112.15	4092
3110.76	4171.5
3109.37	4157.5
3107.98	4160
3106.59	4142.5
3105.2	4193.5
3103.8	4217
3102.41	4242.5
3101.02	4229.5
3099.63	4278
3098.23	4239
3096.84	4307.5
3095.45	4344.5
3094.05	4322.5
3092.66	4334.5
3091.26	4365.5
3089.87	4391
3088.47	4399
3087.08	4381.5
3085.68	4441
3084.28	4412.5
3082.89	4440.5
3081.49	4543
3080.09	4499
3078.69	4492
3077.3	4510
3075.9	4503
3074.5	4633
3073.1	4553
3071.7	4537
3070.3	4553
3068.9	4561
3067.5	4652.5
3066.09	4617
3064.69	4609.5
3063.29	4636.5
3061.89	4600
3060.48	4659
3059.08	4661.5
3057.68	4785.5
3056.27	4674
3054.87	4688
3053.46	4697.5
3052.06	4762
3050.65	4688
3049.25	4776.5
3047.84	4781.5
3046.44	4729
3045.03	4830
3043.62	4761
3042.21	4813
3040.81	4842
3039.4	4906
3037.99	4850
3036.58	4806.5
3035.17	4870
3033.76	4978.5
3032.35	4935
3030.94	4887
3029.53	4928.5
3028.12	5002
3026.71	4936.5
3025.29	4925
3023.88	4984.5
3022.47	4983
3021.06	4968
3019.64	5002
3018.23	4946
3016.82	4990.5
3015.4	4925
3013.99	5045.5
3012.57	5066.5
3011.15	5022
3009.74	5046
3008.32	5073
3006.91	5079
3005.49	5123.5
3004.07	5158
3002.65	5121.5
3001.24	5178.5
2999.82	5209
2998.4	5170
2996.98	5237
2995.56	5279.5
2994.14	5259.5
2992.72	5251.5
2991.3	5282.5
2989.88	5265
2988.46	5335.5
2987.03	5391
2985.61	5383.5
2984.19	5417
2982.77	5448.5
2981.34	5409
2979.92	5493.5
2978.49	5485.5
2977.07	5491.5
2975.65	5547
2974.22	5591.5
2972.79	5587
2971.37	5730.5
2969.94	5659
2968.52	5771
2967.09	5729.5
2965.66	5745.5
2964.23	5744.5
2962.81	5693.5
2961.38	5782.5
2959.95	5920
2958.52	5835.5
2957.09	5878
2955.66	5952.5
2954.23	5807.5
2952.8	5876.5
2951.37	5925.5
2949.94	5853.5
2948.5	5866
2947.07	5944
2945.64	5955.5
2944.21	5946
2942.77	5938
2941.34	5992.5
2939.91	5977.5
2938.47	5956.5
2937.04	6048
2935.6	6105
2934.17	5996.5
2932.73	6023.5
2931.29	6129
2929.86	6093
2928.42	6041.5
2926.98	6113
2925.55	6152.5
2924.11	6238.5
2922.67	6249
2921.23	6206.5
2919.79	6222
2918.35	6210
2916.91	6253.5
2915.47	6244.5
2914.03	6184
2912.59	6278
2911.15	6256
2909.71	6322
2908.26	6320.5
2906.82	6310.5
2905.38	6348.5
2903.94	6280.5
2902.49	6376
2901.05	6351.5
2899.6	6432
2898.16	6499.5
2896.71	6399
2895.27	6444
2893.82	6389.5
2892.38	6438
2890.93	6348
2889.48	6392
2888.03	6394.5
2886.59	6413
2885.14	6422
2883.69	6436.5
2882.24	6460
2880.79	6431.5
2879.34	6453.5
2877.89	6398
2876.44	6462.5
2874.99	6443.5
2873.54	6523.5
2872.09	6343
2870.64	6472.5
2869.18	6483
2867.73	6429.5
2866.28	6425.5
2864.83	6413.5
2863.37	6464
2861.92	6470
2860.46	6507
2859.01	6452
2857.55	6505.5
2856.1	6445.5
2854.64	6457
2853.19	6410
2851.73	6488
2850.27	6583
2848.81	6632.5
2847.36	6554
2845.9	6558
2844.44	6499
2842.98	6528
2841.52	6484.5
2840.06	6510.5
2838.6	6458
2837.14	6458.5
2835.68	6431.5
2834.22	6401
2832.76	6452.5
2831.3	6444.5
2829.83	6431.5
2828.37	6364.5
2826.91	6474
2825.44	6361.5
2823.98	6386.5
2822.52	6343
2821.05	6384.5
2819.59	6335.5
2818.12	6378
2816.66	6279.5
2815.19	6320
2813.72	6227
2812.26	6245.5
2810.79	6252
2809.32	6259.5
2807.85	6207.5
2806.38	6190
2804.92	6225
2803.45	6199
2801.98	6289
2800.51	6210
2799.04	6207
2797.57	6212.5
2796.1	6234
2794.62	6247.5
2793.15	6122
2791.68	6136
2790.21	6107
2788.73	6116
2787.26	6129
2785.79	6101
2784.31	6039
2782.84	6106.5
2781.36	6097
2779.89	6159
2778.41	6178
2776.94	6074.5
2775.46	6186
2773.99	6130
2772.51	6141.5
2771.03	6150.5
2769.55	6143
2768.07	6105
2766.6	6106
2765.12	6180.5
2763.64	6166
2762.16	6122.5
2760.68	6162.5
2759.2	6088
2757.72	6098.5
2756.24	6020
2754.75	6143
2753.27	6166
2751.79	6071
2750.31	6157.5
2748.82	6094
2747.34	6062
2745.86	6170.5
2744.37	6115.5
2742.89	6085
2741.4	6056
2739.92	6090
2738.43	6120.5
2736.94	6113
2735.46	6061.5
2733.97	6126.5
2732.48	6065.5
2731	6103
2729.51	6100.5
2728.02	6115
2726.53	6108
2725.04	6094
2723.55	6151.5
2722.06	6115
2720.57	6129.5
2719.08	6189
2717.59	6218.5
2716.1	6166
2714.61	6081
2713.11	6029
2711.62	6090.5
2710.13	6057
2708.64	6118.5
2707.14	6036.5
2705.65	6032.5
2704.15	6017
2702.66	5996.5
2701.16	5962
2699.67	5912.5
2698.17	5901.5
2696.67	5913
2695.18	5895.5
2693.68	5941
2692.18	5900.5
2690.69	5879.5
2689.19	5933
2687.69	5901.5
2686.19	5870.5
2684.69	5835.5
2683.19	5863.5
2681.69	5888
2680.19	5841.5
2678.69	5822.5
2677.19	5860
2675.68	5799.5
2674.18	5816
2672.68	5915.5
2671.18	5805.5
2669.67	5858
2668.17	5822.5
2666.66	5773.5
2665.16	5791
2663.66	5811
2662.15	5740
2660.64	5815.5
2659.14	5744.5
2657.63	5884
2656.13	5802
2654.62	5764
2653.11	5736
2651.6	5756.5
2650.09	5790
2648.58	5764.5
2647.08	5696
2645.57	5739
2644.06	5774
2642.55	5718
2641.04	5710.5
2639.52	5681.5
2638.01	5648
2636.5	5672
2634.99	5747
2633.48	5609
2631.96	5621
2630.45	5580.5
2628.94	5652.5
2627.42	5552.5
2625.91	5636.5
2624.39	5560
2622.88	5580.5
2621.36	5581.5
2619.85	5692
2618.33	5581.5
2616.81	5564
2615.3	5619.5
2613.78	5630.5
2612.26	5623
2610.74	5576.5
2609.22	5556
2607.7	5519.5
2606.18	5515.5
2604.66	5438
2603.14	5460.5
2601.62	5486.5
2600.1	5347
2598.58	5403
2597.06	5443.5
2595.54	5374.5
2594.01	5403.5
2592.49	5383
2590.97	5341.5
2589.44	5405
2587.92	5343
2586.39	5404
2584.87	5308
2583.34	5272.5
2581.82	5366.5
2580.29	5352
2578.76	5273
2577.24	5310
2575.71	5262.5
2574.18	5332.5
2572.65	5271
2571.13	5268
2569.6	5301
2568.07	5301
2566.54	5289
2565.01	5259.5
2563.48	5230
2561.95	5216.5
2560.42	5158.5
2558.88	5123.5
2557.35	5189
2555.82	5183.5
2554.29	5144
2552.75	5137.5
2551.22	5127
2549.69	5081.5
2548.15	5094.5
2546.62	5122
2545.08	5082.5
2543.55	4995.5
2542.01	5027.5
2540.47	4974.5
2538.94	5039
2537.4	5024.5
2535.86	4945.5
2534.33	4972
2532.79	4973
2531.25	4922.5
2529.71	4893
2528.17	4842.5
2526.63	4906
2525.09	4904.5
2523.55	4943.5
2522.01	4868
2520.47	4866.5
2518.92	4826.5
2517.38	4834.5
2515.84	4768.5
2514.3	4759
2512.75	4733
2511.21	4688
2509.67	4726
2508.12	4635.5
2506.58	4648
2505.03	4679.5
2503.49	4676
2501.94	4640
2500.39	4607
2498.85	4678.5
2497.3	4641
2495.75	4607
2494.2	4610.5
2492.65	4495.5
2491.11	4552.5
2489.56	4558
2488.01	4582
2486.46	4558
2484.91	4574
2483.36	4497.5
2481.8	4423
2480.25	4433.5
2478.7	4477.5
2477.15	4435.5
2475.6	4447
2474.04	4450.5
2472.49	4404
2470.93	4444.5
2469.38	4406.5
2467.83	4388
2466.27	4311.5
2464.71	4283.5
2463.16	4325
2461.6	4358
2460.05	4261
2458.49	4240.5
2456.93	4220.5
2455.37	4257.5
2453.81	4185.5
2452.26	4182.5
2450.7	4278
2449.14	4253.5
2447.58	4227
2446.02	4212.5
2444.46	4147
2442.9	4137.5
2441.33	4113.5
2439.77	4126
2438.21	4094.5
2436.65	4076.5
2435.08	4089
2433.52	4040
2431.96	4069
2430.39	4001
2428.83	3967
2427.26	4003.5
2425.7	3975.5
2424.13	4014.5
2422.56	3984.5
2421	3953.5
2419.43	4023
2417.86	3873
2416.3	3893.5
2414.73	3914
2413.16	3944.5
2411.59	3914
2410.02	3863.5
2408.45	3893.5
2406.88	3837
2405.31	3829
2403.74	3865
2402.17	3908
2400.6	3823
2399.02	3828.5
2397.45	3793.5
2395.88	3802
2394.3	3829
2392.73	3796.5
2391.16	3724.5
2389.58	3735.5
2388.01	3775
2386.43	3755
2384.86	3729.5
2383.28	3676.5
2381.7	3711
2380.13	3655
2378.55	3732.5
2376.97	3718
2375.39	3755.5
2373.81	3678
2372.23	3671.5
2370.65	3678.5
2369.07	3722
2367.49	3661
2365.91	3659.5
2364.33	3619.5
2362.75	3616.5
2361.17	3617
2359.59	3635.5
2358.01	3600
2356.42	3627.5
2354.84	3526.5
2353.25	3587.5
2351.67	3594.5
2350.09	3568
2348.5	3509.5
2346.92	3460
2345.33	3578.5
2343.74	3506
2342.16	3509
2340.57	3508.5
2338.98	3453.5
2337.39	3510.5
2335.81	3531
2334.22	3507.5
2332.63	3491.5
2331.04	3470.5
2329.45	3484
2327.86	3442.5
2326.27	3429
2324.68	3456
2323.09	3433.5
2321.49	3445.5
2319.9	3420
2318.31	3422.5
2316.72	3403
2315.12	3402.5
2313.53	3409
2311.93	3362.5
2310.34	3354.5
2308.74	3389.5
2307.15	3377
2305.55	3308
2303.96	3305.5
2302.36	3305.5
2300.76	3289.5
2299.17	3273
2297.57	3231
2295.97	3217.5
2294.37	3250.5
2292.77	3205
2291.17	3226.5
2289.57	3196
2287.97	3211
2286.37	3163.5
2284.77	3134
2283.17	3081
2281.57	3112.5
2279.96	3143.5
2278.36	3072.5
2276.76	3023.5
2275.15	3126
2273.55	3061.5
2271.95	3003.5
2270.34	3014.5
2268.74	3078
2267.13	2928.5
2265.52	3041.5
2263.92	2941.5
2262.31	3030.5
2260.7	2984
2259.1	2968.5
2257.49	2954
2255.88	2928
2254.27	2989.5
2252.66	2980
2251.05	2922
2249.44	2938
2247.83	2938
2246.22	2910
2244.61	2906.5
2243	2837.5
2241.39	2911
2239.77	2833.5
2238.16	2877
2236.55	2824
2234.93	2810.5
2233.32	2787.5
2231.7	2802
2230.09	2809
2228.47	2757.5
2226.86	2788
2225.24	2779.5
2223.63	2757
2222.01	2758.5
2220.39	2780
2218.77	2743
2217.16	2762
2215.54	2714
2213.92	2689.5
2212.3	2694
2210.68	2696
2209.06	2718.5
2207.44	2671.5
2205.82	2692
2204.19	2632
2202.57	2632.5
2200.95	2656
2199.33	2626
2197.7	2610.5
2196.08	2654
2194.46	2630.5
2192.83	2558
2191.21	2582
2189.58	2618.5
2187.96	2574.5
2186.33	2522.5
2184.7	2554.5
2183.08	2528
2181.45	2528.5
2179.82	2494
2178.19	2522.5
2176.57	2492
2174.94	2510
2173.31	2461
2171.68	2463.5
2170.05	2418
2168.42	2471.5
2166.79	2519
2165.16	2476
2163.52	2454
2161.89	2440
2160.26	2450
2158.63	2442.5
2156.99	2434.5
2155.36	2414
2153.73	2427
2152.09	2414.5
2150.46	2433.5
2148.82	2393
2147.18	2394.5
2145.55	2404
2143.91	2347.5
2142.27	2322.5
2140.64	2344.5
2139	2354
2137.36	2323.5
2135.72	2331.5
2134.08	2300
2132.44	2308.5
2130.8	2310.5
2129.16	2254
2127.52	2209.5
2125.88	2209
2124.24	2246
2122.6	2188.5
2120.95	2120.5
2119.31	2184
2117.67	2149.5
2116.02	2161
2114.38	2149.5
2112.74	2144
2111.09	2106
2109.45	2141.5
2107.8	2121.5
2106.15	2147
2104.51	2092.5
2102.86	2128.5
2101.21	2115
2099.56	2100
2097.92	2054
2096.27	2104.5
2094.62	2079
2092.97	2034
2091.32	2031
2089.67	2027.5
2088.02	2020
2086.37	2035
2084.72	2031.5
2083.06	2062
2081.41	2009
2079.76	2024.5
2078.1	1991.5
2076.45	1952.5
2074.8	1958
2073.14	1958
2071.49	1954.5
2069.83	1976
2068.18	1942
2066.52	1955
2064.86	1947
2063.21	1977.5
2061.55	1970.5
2059.89	1935
2058.23	1929
2056.57	1902
2054.92	1905
2053.26	1948.5
2051.6	1904
2049.94	1910
2048.27	1908
2046.61	1908
2044.95	1908
2043.29	1859
2041.63	1880.5
2039.97	1877.5
2038.3	1830.5
2036.64	1847.5
2034.97	1844
2033.31	1838
2031.64	1836
2029.98	1817.5
2028.31	1843
2026.65	1775.5
2024.98	1830.5
2023.31	1798
2021.65	1771.5
2019.98	1797.5
2018.31	1740
2016.64	1778.5
2014.97	1778
2013.3	1756.5
2011.63	1754.5
2009.96	1716
2008.29	1716
2006.62	1757
2004.95	1693.5
2003.28	1705.5
2001.6	1675.5
1999.93	1678
1998.26	1679.5
1996.58	1681
1994.91	1640.5
1993.24	1685.5
1991.56	1631
1989.89	1653.5
1988.21	1645
1986.53	1659.5
1984.86	1677
1983.18	1645
1981.5	1578
1979.82	1623
1978.15	1618.5
1976.47	1583
1974.79	1639
1973.11	1628
1971.43	1573
1969.75	1595
1968.07	1589.5
1966.38	1563.5
1964.7	1570.5
1963.02	1566.5
1961.34	1542
1959.66	1573
1957.97	1541.5
1956.29	1546
1954.6	1557.5
1952.92	1520
1951.23	1534.5
1949.55	1498
1947.86	1550.5
1946.18	1510
1944.49	1477
1942.8	1526
1941.11	1473.5
1939.43	1497
1937.74	1458
1936.05	1433.5
1934.36	1461.5
1932.67	1445.5
1930.98	1444.5
1929.29	1407.5
1927.6	1439
1925.91	1382
1924.21	1379.5
1922.52	1389.5
1920.83	1374
1919.14	1386
1917.44	1402.5
1915.75	1378.5
1914.05	1394.5
1912.36	1380.5
1910.66	1331.5
1908.97	1352.5
1907.27	1365
1905.58	1336.5
1903.88	1313.5
1902.18	1324
1900.48	1320
1898.79	1311
1897.09	1287
1895.39	1309
1893.69	1298
1891.99	1271.5
1890.29	1262.5
1888.59	1299.5
1886.89	1243
1885.18	1239
1883.48	1266
1881.78	1245.5
1880.08	1258.5
1878.37	1207.5
1876.67	1240.5
1874.96	1193
1873.26	1185
1871.55	1176
1869.85	1210.5
1868.14	1184
1866.44	1200
1864.73	1226.5
1863.02	1201.5
1861.32	1194.5
1859.61	1159
1857.9	1153.5
1856.19	1143
1854.48	1166
1852.77	1129
1851.06	1144.5
1849.35	1153.5
1847.64	1101
1845.93	1127.5
1844.21	1116.5
1842.5	1137.5
1840.79	1113.5
1839.08	1079
1837.36	1088
1835.65	1096
1833.93	1096.5
1832.22	1120.5
1830.5	1081
1828.79	1100
1827.07	1094.5
1825.36	1083
1823.64	1088.5
1821.92	1066
1820.2	1062
1818.48	1060.5
1816.77	1017.5
1815.05	1031.5
1813.33	1033.5
1811.61	1022
1809.89	1048
1808.16	1008
1806.44	1019
1804.72	1023.5
1803	984
1801.28	1010.5
1799.55	1006.5
1797.83	1015
1796.11	1012
1794.38	991.5
1792.66	1002
1790.93	943
1789.21	986
1787.48	958.5
1785.75	969.5
1784.03	985.5
1782.3	959.5
1780.57	915
1778.84	911
1777.11	943.5
1775.38	894
1773.66	983
1771.93	955.5
1770.19	940.5
1768.46	909
1766.73	944
1765	946
1763.27	942.5
1761.54	979
1759.8	921
1758.07	937
1756.34	936
1754.6	939.5
1752.87	931
1751.13	939.5
1749.4	1002
1747.66	959
1745.92	959.5
1744.19	963
1742.45	961.5
1740.71	1013
1738.97	933
1737.23	949
1735.49	900
1733.75	938
1732.01	897
1730.27	891.5
1728.53	870
1726.79	873.5
1725.05	905.5
1723.31	844.5
1721.57	869
1719.82	843.5
1718.08	859
1716.34	857
1714.59	823
1712.85	804.5
1711.1	889.5
1709.36	856
1707.61	856
1705.86	831
1704.12	831.5
1702.37	774.5
1700.62	806
1698.87	802.5
1697.12	819
1695.37	803
1693.62	788.5
1691.87	794
1690.12	785
1688.37	782
1686.62	777
1684.87	751
1683.12	774
1681.36	773
1679.61	804.5
1677.86	776.5
1676.1	760.5
1674.35	776.5
1672.59	768.5
1670.84	801
1669.08	786.5
1667.33	815.5
1665.57	865.5
1663.81	846.5
1662.06	890
1660.3	940
1658.54	938
1656.78	930
1655.02	962
1653.26	955.5
1651.5	874
1649.74	878.5
1647.98	853
1646.22	796.5
1644.46	771.5
1642.7	785
1640.93	731
1639.17	737.5
1637.41	764.5
1635.64	742
1633.88	693
1632.11	719.5
1630.35	701
1628.58	680
1626.81	726.5
1625.05	687
1623.28	682.5
1621.51	678.5
1619.75	667
1617.98	656
1616.21	678
1614.44	677
1612.67	637
1610.9	638.5
1609.13	667
1607.36	639
1605.58	640
1603.81	640
1602.04	645
1600.27	626.5
1598.49	668
1596.72	654
1594.95	638.5
1593.17	630
1591.4	653
1589.62	644
1587.84	658
1586.07	626
1584.29	646
1582.51	613
1580.74	636
1578.96	639.5
1577.18	625.5
1575.4	641
1573.62	619
1571.84	631.5
1570.06	620
1568.28	624.5
1566.5	601.5
1564.72	642
1562.93	598
1561.15	609
1559.37	587
1557.58	599
1555.8	630.5
1554.02	573.5
1552.23	617
1550.45	607
1548.66	574
1546.87	586.5
1545.09	586
1543.3	580
1541.51	579.5
1539.72	578
1537.94	565.5
1536.15	570
1534.36	567
1532.57	552
1530.78	568
1528.99	566.5
1527.2	566
1525.4	540.5
1523.61	558.5
1521.82	536
1520.03	543.5
1518.23	562.5
1516.44	533.5
1514.65	566.5
1512.85	554.5
1511.06	573.5
1509.26	577.5
1507.46	540.5
1505.67	571
1503.87	559
1502.07	575
1500.28	562
1498.48	559
1496.68	550
1494.88	571
1493.08	565.5
1491.28	584
1489.48	550
1487.68	554
1485.88	562.5
1484.08	623
1482.27	603
1480.47	615
1478.67	625
1476.86	607.5
1475.06	637.5
1473.25	699
1471.45	729
1469.64	727
1467.84	794
1466.03	783
1464.23	850.5
1462.42	883
1460.61	901
1458.8	964
1456.99	944
1455.18	979
1453.37	999.5
1451.56	994
1449.75	1023.5
1447.94	1064
1446.13	1138.5
1444.32	1109
1442.51	1159
1440.7	1183.5
1438.88	1101
1437.07	1057.5
1435.26	1058
1433.44	920
1431.63	863.5
1429.81	815
1427.99	729
1426.18	717.5
1424.36	665.5
1422.54	615.5
1420.73	604.5
1418.91	589
1417.09	587
1415.27	566.5
1413.45	515
1411.63	544
1409.81	540.5
1407.99	550.5
1406.17	512
1404.35	507
1402.53	501
1400.7	459
1398.88	521
1397.06	469.5
1395.23	454
1393.41	470
1391.58	494
1389.76	472
1387.93	486.5
1386.11	478.5
1384.28	477.5
1382.45	485
1380.62	468
1378.8	459
1376.97	495
1375.14	485.5
1373.31	493.5
1371.48	491
1369.65	494
1367.82	510.5
1365.99	458
1364.16	464.5
1362.32	460
1360.49	494.5
1358.66	499
1356.82	483
1354.99	441.5
1353.16	491
1351.32	462
1349.48	488.5
1347.65	485
1345.81	500.5
1343.98	485.5
1342.14	511.5
1340.3	480.5
1338.46	467
1336.62	488.5
1334.79	477.5
1332.95	518
1331.11	516.5
1329.27	496.5
1327.42	539.5
1325.58	572.5
1323.74	535
1321.9	558.5
1320.06	595
1318.21	600.5
1316.37	646.5
1314.53	665.5
1312.68	682
1310.84	749.5
1308.99	778
1307.15	799
1305.3	837
1303.45	828.5
1301.61	853.5
1299.76	848
1297.91	833.5
1296.06	780
1294.21	743
1292.36	689
1290.51	640
1288.66	642.5
1286.81	622.5
1284.96	603
1283.11	586
1281.26	576.5
1279.4	580
1277.55	575
1275.7	556
1273.84	586
1271.99	582.5
1270.13	598
1268.28	575
1266.42	543
1264.56	562
1262.71	571.5
1260.85	535
1258.99	541
1257.13	522.5
1255.27	546.5
1253.41	492
1251.56	481
1249.7	479
1247.83	474
1245.97	458
1244.11	458.5
1242.25	445.5
1240.39	443
1238.52	427.5
1236.66	418
1234.8	400.5
1232.93	399
1231.07	378
1229.2	397
1227.34	400.5
1225.47	402.5
1223.6	399
1221.74	397
1219.87	386
1218	349
1216.13	376.5
1214.26	404.5
1212.39	373
1210.53	370
1208.65	366
1206.78	392
1204.91	342
1203.04	371
1201.17	355
1199.3	366.5
1197.42	369.5
1195.55	410
1193.68	374.5
1191.8	361
1189.93	326
1188.05	355.5
1186.17	339
1184.3	351.5
1182.42	372
1180.54	317
1178.67	356
1176.79	333
1174.91	379.5
1173.03	348
1171.15	369.5
1169.27	346.5
1167.39	383.5
1165.51	307
1163.63	358
1161.75	386
1159.86	374.5
1157.98	346.5
1156.1	340
1154.21	354
1152.33	386
1150.44	367.5
1148.56	356.5
1146.67	366
1144.79	377.5
1142.9	379
1141.01	358.5
1139.12	358.5
1137.24	381.5
1135.35	430
1133.46	380
1131.57	429
1129.68	451
1127.79	431
1125.9	458
1124.01	480.5
1122.12	454
1120.22	446
1118.33	425.5
1116.44	409
1114.54	455
1112.65	451
1110.75	436.5
1108.86	428
1106.96	427
1105.07	436.5
1103.17	457
1101.27	444
1099.38	480.5
1097.48	529
1095.58	501
1093.68	567
1091.78	563
1089.88	597
1087.98	584
1086.08	593.5
1084.18	629.5
1082.28	624
1080.38	621.5
1078.47	571.5
1076.57	611
1074.67	545
1072.76	577
1070.86	597
1068.95	592.5
1067.05	596
1065.14	584
1063.24	603.5
1061.33	590.5
1059.42	547.5
1057.51	486
1055.6	438
1053.7	467
1051.79	450
1049.88	466
1047.97	453
1046.06	432.5
1044.14	433
1042.23	454.5
1040.32	436
1038.41	455.5
1036.5	445
1034.58	444.5
1032.67	436
1030.75	432
1028.84	445.5
1026.92	447
1025.01	436.5
1023.09	455
1021.17	439
1019.26	427.5
1017.34	404.5
1015.42	431
1013.5	447
1011.58	397.5
1009.66	430.5
1007.74	410
1005.82	443.5
1003.9	403
1001.98	402
1000.06	420
998.134	392.5
996.212	452.5
994.288	396
992.364	427
990.44	430
988.515	444
986.589	454
984.663	500.5
982.737	470
980.81	467.5
978.883	514
976.955	505
975.027	511.5
973.098	527
971.169	502
969.239	541.5
967.308	513
965.378	512
963.447	529.5
961.516	549
959.583	550
957.65	538
955.718	555
953.784	540
951.85	572.5
949.916	570
947.981	555
946.045	551
944.109	588.5
942.173	600
940.236	581.5
938.298	611.5
936.36	556
934.422	548.5
932.484	544
930.544	520
928.604	505
926.664	470
924.724	484
922.782	498.5
920.84	491
918.898	448
916.955	448.5
915.012	424
913.068	475
911.124	442.5
909.18	470
907.235	480
905.289	452
903.343	478
901.397	472.5
899.45	481
897.502	462
895.554	477.5
893.605	528
891.657	534
889.707	520.5
887.758	485
885.807	521.5
883.856	517.5
881.905	508
879.953	520.5
878.001	527.5
876.048	528
874.094	538
872.14	513.5
870.186	547
868.232	548
866.276	510
864.321	519
862.365	506
860.408	486.5
858.451	539.5
856.493	475.5
854.535	495
852.576	515.5
850.617	517.5
848.658	500
846.698	525
844.737	506.5
842.776	451
840.814	483
838.852	477
836.89	467
834.927	439
832.963	486.5
830.999	438.5
829.035	438
827.07	440.5
825.105	396
823.139	377
821.172	399.5
819.206	405
817.238	379
815.27	385
813.301	389
811.333	376
809.363	332
807.394	359
805.424	343.5
803.453	337
801.482	348.5
799.509	314
797.538	294
795.565	311
793.592	285
791.618	325
789.643	321.5
787.669	287
785.693	298.5
783.718	244
781.742	292
779.765	299
777.788	265
775.811	275
773.832	305.5
771.853	279.5
769.875	300
767.895	281
765.915	310
763.934	284
761.953	296
759.972	297
757.99	316
756.007	279.5
754.024	276.5
752.041	290
750.056	305
748.072	270
746.087	287.5
744.102	265.5
742.116	275.5
740.13	293
738.143	266.5
736.155	304
734.167	273
732.179	274
730.19	273
728.2	287.5
726.21	328.5
724.22	270
722.229	284
720.237	303
718.246	266
716.253	276
714.26	314
712.267	274.5
710.273	283.5
708.279	247.5
706.284	258
704.289	262
702.293	270.5
700.296	269
698.3	266.5
696.303	249
694.305	247
692.307	251
690.307	291.5
688.308	272.5
686.309	246.5
684.308	262.5
682.308	240
680.306	248.5
678.304	237
676.302	271
674.3	287
672.296	277
670.293	254.5
668.289	249.5
666.284	254
664.278	282
662.273	292
660.266	261.5
658.26	275
656.252	307
654.244	278
652.237	260
650.227	283
648.218	278.5
646.209	267
644.198	251
642.188	311
640.177	298.5
638.165	258
636.153	292
634.14	298.5
632.128	280.5
630.113	317
628.099	296.5
626.085	300
624.07	321
622.054	294
620.038	315
618.021	325.5
616.004	318.5
613.986	310
611.968	326
609.949	341
607.93	280
605.911	293
603.891	305
601.87	296.5
599.848	317.5
597.827	318
595.805	291
593.782	309
591.759	325
589.735	290
587.711	315.5
585.687	290
583.661	271
581.636	275.5
579.609	325.5
577.583	277
575.555	294.5
573.527	307.5
571.5	284
569.471	304
567.441	290.5
565.412	259.5
563.382	306
561.351	312
559.32	312
557.289	319.5
555.257	324
553.223	337
551.19	342
549.157	350
547.122	364
545.088	382.5
543.053	390
541.017	414
538.981	467
536.943	551
534.907	635
532.869	808.5
530.831	1110
528.792	1631
526.752	2523.5
524.713	3832.5
522.673	5013
520.632	5222.5
518.591	4406
516.549	3257
514.507	2225
512.464	1461
510.42	994.5
508.377	780
506.332	583
504.288	502
502.242	462.5
500.196	467.5
498.15	433
496.104	432.5
494.056	411
492.008	377
489.96	387
487.911	421.5
485.862	402.5
483.812	397.5
481.761	369
479.71	368
477.659	382.5
475.607	350
473.555	378.5
471.502	337
469.448	371
467.395	351
465.34	351
463.285	353.5
461.23	356
459.174	366
457.118	369
455.061	371
453.003	360
450.945	383
448.887	374.5
446.828	364
444.768	356.5
442.708	396.5
440.647	353
438.587	395.5
436.525	393.5
434.463	398.5
432.4	372
430.337	379
428.274	418.5
426.21	378
424.145	397
422.079	367
420.014	398
417.948	407.5
415.882	419
413.814	411.5
411.746	385
409.679	424
407.609	409
405.54	369
403.47	378
401.401	409
399.329	403
397.258	443
395.187	375
393.114	415
391.041	405
388.968	401
386.895	408.5
384.82	419.5
382.745	393
380.67	422
378.594	430
376.517	433
374.44	420
372.363	430.5
370.286	472
368.207	397
366.128	425.5
364.049	464
361.969	451.5
359.888	456
357.807	437
355.725	436
353.643	432
351.561	450
349.477	425
347.394	469
345.31	446
343.226	459
341.141	459
339.055	478.5
336.968	491
334.882	466.5
332.795	496.5
330.707	455
328.618	526.5
326.53	458
324.44	520.5
322.351	503
320.26	562
318.17	564
316.078	571
313.987	559
311.895	628
309.802	640.5
307.708	656.5
305.614	635
303.52	665.5
301.425	666
299.329	654.5
297.233	630
295.137	612
293.039	588
290.942	587
288.844	601
286.745	589
284.647	575.5
282.546	546
280.446	584
278.346	558
276.245	558
274.143	584.5
272.041	578.5
269.939	594
267.835	587
265.731	589
263.627	634
261.522	616.5
259.417	606
257.311	606
255.204	590
253.098	618
250.99	625
248.882	633
246.774	643
244.664	623
242.555	648
240.445	663.5
238.334	684.5
236.223	668
234.112	673
232	695.5
229.888	699
227.775	665.5
225.661	672.5
223.546	693
221.431	709.5
219.316	698
217.201	743
215.084	733.5
212.967	731
210.85	717
208.732	746.5
206.614	743
204.495	723.5
202.375	732.5
200.256	734.5
198.135	728
196.014	721
193.893	736
191.771	710
189.648	707
187.525	718.5
185.401	727
183.277	718
181.152	752.5
179.027	741
176.901	751
174.775	735
172.648	762.5
170.521	766
168.393	748
166.265	811
164.136	824.5
162.007	790
159.876	843
157.746	864
155.615	819
153.483	861.5
151.351	902.5
149.219	918
147.086	887
144.952	986.5
142.818	989
140.684	1053.5
138.548	1050.5
136.413	1051
134.276	1096
132.139	1160
130.002	1174.5
127.864	1188
125.725	1258.5
123.587	1313
121.447	1402.5
119.307	1415.5
117.166	1456
115.026	1514
112.885	1582
110.743	1669
108.6	1680
106.456	1771.5
104.313	1773.5
102.169	1732
100.023	1642
97.8789	1630
95.7328	1462
93.5869	1355
91.4392	1138.5
89.2919	931.5
87.1447	791.5
84.9959	634.5
