3528.51	255
3527.23	262
3525.95	286.5
3524.67	270
3523.39	293
3522.1	288.5
3520.82	315
3519.54	288
3518.26	275
3516.97	282
3515.69	283
3514.4	288.5
3513.12	277
3511.84	270
3510.55	291
3509.26	287.5
3507.98	294.5
3506.69	285
3505.41	303.5
3504.12	337.5
3502.83	308
3501.54	322.5
3500.26	315
3498.97	306.5
3497.68	333
3496.39	328
3495.1	312
3493.81	347
3492.52	338
3491.23	321
3489.94	375.5
3488.65	346
3487.36	361
3486.07	373.5
3484.78	365
3483.49	370.5
3482.19	366
3480.9	376
3479.61	371
3478.31	384
3477.02	394.5
3475.73	357.5
3474.43	382
3473.14	396
3471.84	443.5
3470.54	422
3469.25	421.5
3467.95	425
3466.66	422.5
3465.36	405
3464.06	416
3462.76	395
3461.46	439.5
3460.17	466.5
3458.87	436
3457.57	470.5
3456.27	417
3454.97	473
3453.67	473
3452.37	472
3451.07	476.5
3449.77	458
3448.47	482.5
3447.16	483
3445.86	478
3444.56	487
3443.26	465
3441.95	534
3440.65	484
3439.35	534
3438.04	514.5
3436.74	510
3435.43	528.5
3434.13	553
3432.82	569.5
3431.52	596
3430.21	563
3428.9	579
3427.6	570.5
3426.29	597.5
3424.98	613
3423.67	613.5
3422.36	613
3421.06	659
3419.75	638.5
3418.44	659
3417.13	664.5
3415.82	691
3414.51	682.5
3413.2	680
3411.88	691
3410.57	694
3409.26	734
3407.95	723
3406.64	713
3405.32	710
3404.01	745
3402.7	724
3401.38	776
3400.07	752
3398.75	757
3397.44	759.5
3396.12	761.5
3394.81	760
3393.49	756
3392.18	765.5
3390.86	794
3389.54	799.5
3388.23	808
3386.91	809.5
3385.59	791
3384.27	817
3382.95	836
3381.63	848
3380.31	827.5
3378.99	863.5
3377.67	836.5
3376.35	888
3375.03	903
3373.71	896
3372.39	886.5
3371.07	904
3369.75	905
3368.42	890.5
3367.1	930.5
3365.78	887
3364.45	933
3363.13	939
3361.81	954
3360.48	956.5
3359.16	957.5
3357.83	932.5
3356.51	966
3355.18	944.5
3353.85	943
3352.53	981
3351.2	1004
3349.87	961.5
3348.54	1030
3347.22	979.5
3345.89	976
3344.56	984
3343.23	990
3341.9	1015.5
3340.57	987
3339.24	998
3337.91	1012.5
3336.58	1002
3335.25	1018
3333.92	1023.5
3332.58	1008
3331.25	1020
3329.92	1040.5
3328.59	1032.5
3327.25	1054.5
3325.92	1069
3324.58	1057.5
3323.25	1068
3321.92	1041.5
3320.58	1090
3319.25	1126.5
3317.91	1072.5
3316.57	1096.5
3315.24	1071.5
3313.9	1084
3312.56	1098
3311.23	1128.5
3309.89	1110.5
3308.55	1113
3307.21	1117
3305.87	1145.5
3304.53	1101
3303.19	1111
3301.85	1134
3300.51	1130
3299.17	1144
3297.83	1177.5
3296.49	1140
3295.15	1187
3293.81	1150.5
3292.46	1180
3291.12	1164
3289.78	1179
3288.43	1194
3287.09	1176.5
3285.75	1181
3284.4	1192
3283.06	1213
3281.71	1199
3280.37	1195
3279.02	1191.5
3277.67	1240
3276.33	1220
3274.98	1230
3273.63	1237
3272.28	1247.5
3270.94	1239
3269.59	1250.5
3268.24	1269
3266.89	1287
3265.54	1295
3264.19	1321.5
3262.84	1319.5
3261.49	1351.5
3260.14	1337.5
3258.79	1393.5
3257.44	1450
3256.08	1441
3254.73	1478
3253.38	1511.5
3252.03	1562
3250.67	1524.5
3249.32	1614.5
3247.96	1625
3246.61	1692.5
3245.26	1676
3243.9	1739
3242.54	1798
3241.19	1837
3239.83	1888.5
3238.48	1962
3237.12	1990.5
3235.76	2057.5
3234.41	2097.5
3233.05	2171.5
3231.69	2157
3230.33	2261
3228.97	2292
3227.61	2320.5
3226.25	2361.5
3224.89	2389
3223.53	2440.5
3222.17	2511.5
3220.81	2534.5
3219.45	2548
3218.09	2595
3216.72	2588
3215.36	2635
3214	2708
3212.63	2691
3211.27	2695.5
3209.91	2762.5
3208.54	2739.5
3207.18	2759.5
3205.81	2783.5
3204.45	2793
3203.08	2810.5
3201.71	2872
3200.35	2879
3198.98	2859.5
3197.61	2877.5
3196.25	2854
3194.88	2879.5
3193.51	2911
3192.14	2966
3190.77	2893
3189.4	2937.5
3188.03	2888.5
3186.66	2938.5
3185.29	2946
3183.92	3002.5
3182.55	3056.5
3181.18	3061.5
3179.81	3039.5
3178.44	3076
3177.06	3008
3175.69	3108
3174.32	3144
3172.94	3182.5
3171.57	3207.5
3170.2	3236.5
3168.82	3304
3167.45	3235.5
3166.07	3314
3164.69	3330
3163.32	3356.5
3161.94	3351
3160.56	3352
3159.19	3367.5
3157.81	3368.5
3156.43	3481.5
3155.05	3447
3153.67	3507
3152.3	3572.5
3150.92	3572.5
3149.54	3559.5
3148.16	3570.5
3146.78	3595.5
3145.4	3616
3144.01	3676
3142.63	3716
3141.25	3775.5
3139.87	3742.5
3138.49	3776.5
3137.1	3749
3135.72	3840
3134.34	3800
3132.95	3830
3131.57	3915
3130.18	3937
3128.8	3956.5
3127.41	3980.5
3126.03	3993.5
3124.64	4007
3123.25	4086.5
3121.87	4056
3120.48	4112.5
3119.09	4114.5
3117.7	4138
3116.32	4183
3114.93	4191
3113.54	4151
3112.15	4218
3110.76	4250
3109.37	4232
3107.98	4255
3106.59	4356.5
3105.2	4360
3103.8	4303.5
3102.41	4360
3101.02	4367
3099.63	4392.5
3098.23	4371
3096.84	4448.5
3095.45	4466.5
3094.05	4412.5
3092.66	4512
3091.26	4527
3089.87	4485
3088.47	4518
3087.08	4484
3085.68	4533.5
3084.28	4575
3082.89	4590.5
3081.49	4621.5
3080.09	4623
3078.69	4643
3077.3	4634.5
3075.9	4677.5
3074.5	4629
3073.1	4604
3071.7	4628.5
3070.3	4671
3068.9	4694
3067.5	4665.5
3066.09	4732.5
3064.69	4677
3063.29	4683
3061.89	4672
3060.48	4750.5
3059.08	4751
3057.68	4687
3056.27	4771
3054.87	4730.5
3053.46	4784.5
3052.06	4795
3050.65	4689.5
3049.25	4811.5
3047.84	4758
3046.44	4822
3045.03	4858
3043.62	4894
3042.21	4929
3040.81	4915
3039.4	4924
3037.99	4919
3036.58	4954
3035.17	4984.5
3033.76	5005
3032.35	5015.5
3030.94	5001
3029.53	5042.5
3028.12	5052
3026.71	5031.5
3025.29	5027.5
3023.88	5080
3022.47	5114
3021.06	5072
3019.64	5097.5
3018.23	5113
3016.82	5074.5
3015.4	5090.5
3013.99	5131
3012.57	5114
3011.15	5161
3009.74	5114.5
3008.32	5120
3006.91	5186
3005.49	5097.5
3004.07	5164.5
3002.65	5167
3001.24	5211.5
2999.82	5261.5
2998.4	5281.5
2996.98	5333.5
2995.56	5290
2994.14	5312.5
2992.72	5329.5
2991.3	5386.5
2989.88	5361.5
2988.46	5427.5
2987.03	5497
2985.61	5429
2984.19	5502
2982.77	5546
2981.34	5567
2979.92	5565.5
2978.49	5663.5
2977.07	5618
2975.65	5670
2974.22	5732
2972.79	5675.5
2971.37	5788
2969.94	5724
2968.52	5792
2967.09	5851.5
2965.66	5842.5
2964.23	5829
2962.81	5808.5
2961.38	5882.5
2959.95	5890
2958.52	5824.5
2957.09	5926.5
2955.66	5900.5
2954.23	5984.5
2952.8	5997.5
2951.37	5945
2949.94	5964
2948.5	5995
2947.07	5995.5
2945.64	6007
2944.21	6073.5
2942.77	6023.5
2941.34	6038.5
2939.91	6179.5
2938.47	6040
2937.04	6213
2935.6	6194
2934.17	6164.5
2932.73	6261.5
2931.29	6289.5
2929.86	6269.5
2928.42	6284.5
2926.98	6275
2925.55	6336
2924.11	6323.5
2922.67	6279
2921.23	6329
2919.79	6418.5
2918.35	6349
2916.91	6421
2915.47	6370.5
2914.03	6417.5
2912.59	6447.5
2911.15	6440
2909.71	6371.5
2908.26	6441
2906.82	6488.5
2905.38	6504
2903.94	6491.5
2902.49	6509.5
2901.05	6564.5
2899.6	6555
2898.16	6556.5
2896.71	6548
2895.27	6546
2893.82	6575.5
2892.38	6487.5
2890.93	6548
2889.48	6577
2888.03	6541
2886.59	6555.5
2885.14	6615.5
2883.69	6615
2882.24	6569.5
2880.79	6648
2879.34	6653.5
2877.89	6674.5
2876.44	6639.5
2874.99	6654.5
2873.54	6667
2872.09	6679.5
2870.64	6712
2869.18	6676
2867.73	6686.5
2866.28	6682
2864.83	6663.5
2863.37	6733
2861.92	6733.5
2860.46	6690.5
2859.01	6634
2857.55	6671
2856.1	6749
2854.64	6741.5
2853.19	6654
2851.73	6584.5
2850.27	6661.5
2848.81	6665
2847.36	6672.5
2845.9	6610
2844.44	6643.5
2842.98	6660
2841.52	6637.5
2840.06	6628
2838.6	6547.5
2837.14	6634
2835.68	6541.5
2834.22	6569
2832.76	6538
2831.3	6572.5
2829.83	6590.5
2828.37	6490.5
2826.91	6476.5
2825.44	6517.5
2823.98	6514.5
2822.52	6525
2821.05	6507.5
2819.59	6519.5
2818.12	6397.5
2816.66	6471
2815.19	6366
2813.72	6384.5
2812.26	6444
2810.79	6423.5
2809.32	6353.5
2807.85	6309.5
2806.38	6402
2804.92	6354.5
2803.45	6364
2801.98	6369.5
2800.51	6399.5
2799.04	6377.5
2797.57	6414.5
2796.1	6301.5
2794.62	6259.5
2793.15	6289
2791.68	6281.5
2790.21	6303.5
2788.73	6228
2787.26	6152.5
2785.79	6277
2784.31	6233.5
2782.84	6242.5
2781.36	6228.5
2779.89	6298.5
2778.41	6311.5
2776.94	6247.5
2775.46	6350.5
2773.99	6354
2772.51	6301
2771.03	6326.5
2769.55	6393
2768.07	6466
2766.6	6420.5
2765.12	6383.5
2763.64	6442
2762.16	6433
2760.68	6427.5
2759.2	6407
2757.72	6468
2756.24	6415
2754.75	6383.5
2753.27	6490.5
2751.79	6422.5
2750.31	6410.5
2748.82	6462.5
2747.34	6468.5
2745.86	6365
2744.37	6446
2742.89	6364.5
2741.4	6412.5
2739.92	6422.5
2738.43	6326.5
2736.94	6374.5
2735.46	6366
2733.97	6351
2732.48	6388.5
2731	6319
2729.51	6262
2728.02	6346.5
2726.53	6287.5
2725.04	6363
2723.55	6313.5
2722.06	6247
2720.57	6336.5
2719.08	6316.5
2717.59	6284.5
2716.1	6256
2714.61	6359
2713.11	6247.5
2711.62	6254
2710.13	6307
2708.64	6238.5
2707.14	6298.5
2705.65	6400.5
2704.15	6322.5
2702.66	6284.5
2701.16	6317.5
2699.67	6272
2698.17	6253
2696.67	6260.5
2695.18	6250.5
2693.68	6244
2692.18	6276.5
2690.69	6209
2689.19	6269.5
2687.69	6272.5
2686.19	6198
2684.69	6252.5
2683.19	6217
2681.69	6178.5
2680.19	6213
2678.69	6168.5
2677.19	6194
2675.68	6164
2674.18	6109
2672.68	6109.5
2671.18	6139
2669.67	6052
2668.17	6078.5
2666.66	6086.5
2665.16	6086
2663.66	6094.5
2662.15	6006.5
2660.64	6064
2659.14	6088
2657.63	6059.5
2656.13	6008.5
2654.62	5994
2653.11	5971.5
2651.6	6001
2650.09	6001
2648.58	5981
2647.08	5983
2645.57	5984
2644.06	5924.5
2642.55	5984
2641.04	5902.5
2639.52	5921.5
2638.01	5861
2636.5	5831
2634.99	5852
2633.48	5773.5
2631.96	5802
2630.45	5734
2628.94	5794
2627.42	5799.5
2625.91	5731.5
2624.39	5809.5
2622.88	5760.5
2621.36	5792
2619.85	5741.5
2618.33	5759.5
2616.81	5695
2615.3	5719.5
2613.78	5768
2612.26	5657
2610.74	5705
2609.22	5696.5
2607.7	5686.5
2606.18	5662.5
2604.66	5713.5
2603.14	5634.5
2601.62	5604.5
2600.1	5602
2598.58	5489.5
2597.06	5500
2595.54	5519.5
2594.01	5503
2592.49	5528.5
2590.97	5529
2589.44	5490
2587.92	5537.5
2586.39	5482.5
2584.87	5445
2583.34	5487
2581.82	5496
2580.29	5434.5
2578.76	5408
2577.24	5377
2575.71	5413.5
2574.18	5482.5
2572.65	5398
2571.13	5432
2569.6	5355
2568.07	5427.5
2566.54	5426
2565.01	5441
2563.48	5392.5
2561.95	5447
2560.42	5407.5
2558.88	5350.5
2557.35	5364.5
2555.82	5331
2554.29	5300
2552.75	5275.5
2551.22	5322
2549.69	5265.5
2548.15	5222.5
2546.62	5248.5
2545.08	5257
2543.55	5158
2542.01	5177.5
2540.47	5234.5
2538.94	5204.5
2537.4	5122.5
2535.86	5068.5
2534.33	5071.5
2532.79	5063.5
2531.25	5127
2529.71	5146.5
2528.17	5081.5
2526.63	5040.5
2525.09	5084
2523.55	5027
2522.01	4932.5
2520.47	4949.5
2518.92	4933
2517.38	4993
2515.84	4918.5
2514.3	4975
2512.75	4935.5
2511.21	4939.5
2509.67	4874
2508.12	4868
2506.58	4900.5
2505.03	4832
2503.49	4807.5
2501.94	4863.5
2500.39	4836
2498.85	4868.5
2497.3	4785.5
2495.75	4811.5
2494.2	4757
2492.65	4761.5
2491.11	4733
2489.56	4637.5
2488.01	4678
2486.46	4663.5
2484.91	4722
2483.36	4749.5
2481.8	4707
2480.25	4668
2478.7	4674.5
2477.15	4597
2475.6	4667
2474.04	4592
2472.49	4573
2470.93	4639
2469.38	4512
2467.83	4484.5
2466.27	4452
2464.71	4451
2463.16	4379
2461.6	4373.5
2460.05	4392.5
2458.49	4390.5
2456.93	4367.5
2455.37	4331.5
2453.81	4345.5
2452.26	4320
2450.7	4270
2449.14	4277.5
2447.58	4244.5
2446.02	4225
2444.46	4238
2442.9	4202
2441.33	4141
2439.77	4155
2438.21	4156.5
2436.65	4149
2435.08	4158
2433.52	4169.5
2431.96	4104
2430.39	4146.5
2428.83	4096
2427.26	4094.5
2425.7	4115.5
2424.13	4105.5
2422.56	4033
2421	4067
2419.43	4136
2417.86	4022
2416.3	4060.5
2414.73	4071
2413.16	3984
2411.59	4032.5
2410.02	3992.5
2408.45	3961.5
2406.88	3945.5
2405.31	3974.5
2403.74	3962
2402.17	3908
2400.6	3987
2399.02	3907.5
2397.45	3905
2395.88	3866
2394.3	3860.5
2392.73	3927.5
2391.16	3899.5
2389.58	3852.5
2388.01	3894
2386.43	3846.5
2384.86	3820.5
2383.28	3861
2381.7	3874
2380.13	3889.5
2378.55	3808
2376.97	3819
2375.39	3862.5
2373.81	3850
2372.23	3844.5
2370.65	3842
2369.07	3778.5
2367.49	3771.5
2365.91	3732
2364.33	3787.5
2362.75	3739
2361.17	3762.5
2359.59	3764
2358.01	3793.5
2356.42	3741.5
2354.84	3725
2353.25	3763
2351.67	3706
2350.09	3734.5
2348.5	3725.5
2346.92	3700.5
2345.33	3726
2343.74	3723
2342.16	3704.5
2340.57	3723
2338.98	3687.5
2337.39	3654
2335.81	3576.5
2334.22	3652
2332.63	3638.5
2331.04	3616
2329.45	3672
2327.86	3589.5
2326.27	3580.5
2324.68	3574.5
2323.09	3592.5
2321.49	3584
2319.9	3545
2318.31	3578.5
2316.72	3532.5
2315.12	3534.5
2313.53	3558.5
2311.93	3432
2310.34	3506
2308.74	3453.5
2307.15	3478
2305.55	3474.5
2303.96	3441.5
2302.36	3407.5
2300.76	3377.5
2299.17	3441.5
2297.57	3360.5
2295.97	3401.5
2294.37	3312
2292.77	3350
2291.17	3335.5
2289.57	3369.5
2287.97	3349.5
2286.37	3288.5
2284.77	3318.5
2283.17	3316.5
2281.57	3274.5
2279.96	3298.5
2278.36	3281
2276.76	3264.5
2275.15	3309.5
2273.55	3274
2271.95	3233.5
2270.34	3223.5
2268.74	3185
2267.13	3211.5
2265.52	3179.5
2263.92	3165
2262.31	3158
2260.7	3113
2259.1	3148.5
2257.49	3112.5
2255.88	3107
2254.27	3083
2252.66	3165
2251.05	3072
2249.44	3089
2247.83	3099
2246.22	3094.5
2244.61	3055
2243	3051
2241.39	3032
2239.77	3047
2238.16	3049
2236.55	3019
2234.93	2988
2233.32	3061
2231.7	2969.5
2230.09	2986.5
2228.47	2956
2226.86	2904
2225.24	2933
2223.63	2900.5
2222.01	2909.5
2220.39	2920
2218.77	2878
2217.16	2910.5
2215.54	2899
2213.92	2958.5
2212.3	2862
2210.68	2878
2209.06	2839.5
2207.44	2822
2205.82	2832
2204.19	2800
2202.57	2845
2200.95	2753
2199.33	2771
2197.7	2776
2196.08	2768.5
2194.46	2750.5
2192.83	2783.5
2191.21	2752.5
2189.58	2741.5
2187.96	2754.5
2186.33	2684.5
2184.7	2743
2183.08	2708.5
2181.45	2705
2179.82	2702
2178.19	2688.5
2176.57	2657.5
2174.94	2629
2173.31	2648.5
2171.68	2616
2170.05	2628
2168.42	2552
2166.79	2664.5
2165.16	2587.5
2163.52	2560
2161.89	2584
2160.26	2603.5
2158.63	2522.5
2156.99	2569
2155.36	2517
2153.73	2541
2152.09	2505.5
2150.46	2504
2148.82	2500.5
2147.18	2526
2145.55	2479.5
2143.91	2504
2142.27	2458
2140.64	2488.5
2139	2432.5
2137.36	2412
2135.72	2408.5
2134.08	2421.5
2132.44	2434.5
2130.8	2389
2129.16	2381
2127.52	2346.5
2125.88	2332
2124.24	2298.5
2122.6	2262.5
2120.95	2305
2119.31	2317.5
2117.67	2301.5
2116.02	2288.5
2114.38	2255
2112.74	2268.5
2111.09	2257.5
2109.45	2263
2107.8	2243.5
2106.15	2228
2104.51	2205
2102.86	2210
2101.21	2200
2099.56	2179
2097.92	2199
2096.27	2186.5
2094.62	2195.5
2092.97	2122
2091.32	2136.5
2089.67	2141.5
2088.02	2139.5
2086.37	2166.5
2084.72	2117
2083.06	2126
2081.41	2152
2079.76	2119.5
2078.1	2117.5
2076.45	2117
2074.8	2081
2073.14	2115.5
2071.49	2121
2069.83	2113.5
2068.18	2168.5
2066.52	2075.5
2064.86	2121.5
2063.21	2085
2061.55	2047
2059.89	2056.5
2058.23	2057
2056.57	2096
2054.92	2079.5
2053.26	2068
2051.6	2037.5
2049.94	2046
2048.27	2033
2046.61	1984.5
2044.95	2057.5
2043.29	2000.5
2041.63	2010.5
2039.97	2011
2038.3	1994.5
2036.64	1900
2034.97	1954
2033.31	1934.5
2031.64	1947.5
2029.98	1951.5
2028.31	1875.5
2026.65	1897.5
2024.98	1892.5
2023.31	1896.5
2021.65	1840.5
2019.98	1862
2018.31	1840.5
2016.64	1785
2014.97	1812.5
2013.3	1840
2011.63	1820.5
2009.96	1768
2008.29	1813.5
2006.62	1821.5
2004.95	1754.5
2003.28	1780.5
2001.6	1796
1999.93	1787
1998.26	1755
1996.58	1772
1994.91	1728
1993.24	1694.5
1991.56	1752.5
1989.89	1716.5
1988.21	1711
1986.53	1761
1984.86	1728
1983.18	1716.5
1981.5	1715
1979.82	1747.5
1978.15	1708.5
1976.47	1692
1974.79	1671.5
1973.11	1634.5
1971.43	1699.5
1969.75	1701
1968.07	1644.5
1966.38	1697
1964.7	1670.5
1963.02	1657.5
1961.34	1598
1959.66	1618
1957.97	1625.5
1956.29	1601
1954.6	1627
1952.92	1639.5
1951.23	1639.5
1949.55	1588
1947.86	1574.5
1946.18	1571.5
1944.49	1560.5
1942.8	1574.5
1941.11	1549
1939.43	1582.5
1937.74	1554
1936.05	1566
1934.36	1562
1932.67	1530.5
1930.98	1521.5
1929.29	1554.5
1927.6	1546.5
1925.91	1500.5
1924.21	1491.5
1922.52	1451.5
1920.83	1512
1919.14	1461
1917.44	1447
1915.75	1456
1914.05	1493.5
1912.36	1481
1910.66	1468
1908.97	1425
1907.27	1446
1905.58	1461
1903.88	1397.5
1902.18	1416.5
1900.48	1408.5
1898.79	1397
1897.09	1363.5
1895.39	1383.5
1893.69	1352
1891.99	1347.5
1890.29	1321
1888.59	1343
1886.89	1363
1885.18	1349
1883.48	1332
1881.78	1356
1880.08	1320
1878.37	1300
1876.67	1332
1874.96	1266
1873.26	1300
1871.55	1285.5
1869.85	1283
1868.14	1261
1866.44	1299.5
1864.73	1280.5
1863.02	1277
1861.32	1237.5
1859.61	1263
1857.9	1244
1856.19	1185.5
1854.48	1214
1852.77	1234
1851.06	1240.5
1849.35	1212.5
1847.64	1195
1845.93	1197.5
1844.21	1243.5
1842.5	1199.5
1840.79	1212
1839.08	1187.5
1837.36	1187.5
1835.65	1192
1833.93	1157
1832.22	1181
1830.5	1160
1828.79	1171
1827.07	1150.5
1825.36	1146.5
1823.64	1163
1821.92	1140.5
1820.2	1129
1818.48	1116
1816.77	1137.5
1815.05	1137.5
1813.33	1096
1811.61	1094.5
1809.89	1083
1808.16	1109
1806.44	1102
1804.72	1076.5
1803	1073
1801.28	1081
1799.55	1079
1797.83	1100.5
1796.11	1032.5
1794.38	1081.5
1792.66	1073
1790.93	1043
1789.21	1047
1787.48	1048
1785.75	1071.5
1784.03	1026
1782.3	1041
1780.57	997
1778.84	1018.5
1777.11	988
1775.38	1004
1773.66	998.5
1771.93	995
1770.19	1018
1768.46	993.5
1766.73	1003
1765	1002
1763.27	983
1761.54	997
1759.8	1007.5
1758.07	962
1756.34	1017.5
1754.6	1002
1752.87	1044
1751.13	989
1749.4	1024.5
1747.66	1020
1745.92	999
1744.19	1041
1742.45	1007.5
1740.71	1017.5
1738.97	991
1737.23	1009
1735.49	975
1733.75	1011
1732.01	993
1730.27	959.5
1728.53	952
1726.79	955
1725.05	948.5
1723.31	911.5
1721.57	905.5
1719.82	942.5
1718.08	925
1716.34	891
1714.59	886
1712.85	880
1711.1	888
1709.36	878
1707.61	873
1705.86	862
1704.12	876.5
1702.37	894.5
1700.62	869
1698.87	859.5
1697.12	843
1695.37	860
1693.62	834
1691.87	821.5
1690.12	831
1688.37	798
1686.62	829.5
1684.87	818.5
1683.12	821.5
1681.36	837.5
1679.61	802.5
1677.86	837.5
1676.1	845.5
1674.35	815.5
1672.59	820
1670.84	859.5
1669.08	881
1667.33	847
1665.57	894.5
1663.81	946.5
1662.06	923
1660.3	957
1658.54	1006.5
1656.78	1016
1655.02	953.5
1653.26	999.5
1651.5	949
1649.74	894
1647.98	910.5
1646.22	852.5
1644.46	833.5
1642.7	829.5
1640.93	852
1639.17	793
1637.41	778
1635.64	762
1633.88	793.5
1632.11	734.5
1630.35	760
1628.58	766
1626.81	737.5
1625.05	744
1623.28	733.5
1621.51	709
1619.75	697
1617.98	746
1616.21	712.5
1614.44	675
1612.67	694.5
1610.9	715.5
1609.13	700
1607.36	694.5
1605.58	677.5
1603.81	713
1602.04	727
1600.27	697
1598.49	645.5
1596.72	749
1594.95	687
1593.17	714
1591.4	680
1589.62	665
1587.84	691.5
1586.07	679.5
1584.29	678.5
1582.51	663.5
1580.74	653.5
1578.96	691
1577.18	667
1575.4	672
1573.62	673
1571.84	681
1570.06	631
1568.28	628
1566.5	632.5
1564.72	656
1562.93	637
1561.15	672
1559.37	636
1557.58	620
1555.8	654
1554.02	660
1552.23	636.5
1550.45	649
1548.66	635.5
1546.87	611.5
1545.09	603
1543.3	626
1541.51	601.5
1539.72	627
1537.94	592.5
1536.15	607.5
1534.36	575
1532.57	628
1530.78	593
1528.99	597
1527.2	585.5
1525.4	573
1523.61	609
1521.82	585.5
1520.03	600.5
1518.23	633
1516.44	579.5
1514.65	591.5
1512.85	585
1511.06	616
1509.26	594
1507.46	584
1505.67	590
1503.87	590
1502.07	610
1500.28	612
1498.48	584.5
1496.68	621
1494.88	607
1493.08	617
1491.28	610
1489.48	614
1487.68	604
1485.88	649.5
1484.08	659
1482.27	601
1480.47	652.5
1478.67	679.5
1476.86	663
1475.06	695
1473.25	710
1471.45	773
1469.64	800.5
1467.84	793
1466.03	854
1464.23	886
1462.42	915
1460.61	944
1458.8	948.5
1456.99	1011
1455.18	1020
1453.37	1060
1451.56	1060.5
1449.75	1077.5
1447.94	1127.5
1446.13	1165.5
1444.32	1181
1442.51	1177.5
1440.7	1177
1438.88	1175
1437.07	1152
1435.26	1035
1433.44	979
1431.63	912
1429.81	828
1427.99	761.5
1426.18	739.5
1424.36	704.5
1422.54	688
1420.73	651
1418.91	640
1417.09	631.5
1415.27	616
1413.45	567
1411.63	587
1409.81	551
1407.99	538
1406.17	550.5
1404.35	537.5
1402.53	519
1400.7	528
1398.88	529
1397.06	554
1395.23	508
1393.41	524
1391.58	514
1389.76	499
1387.93	512
1386.11	476
1384.28	521
1382.45	492
1380.62	514
1378.8	538
1376.97	522
1375.14	525
1373.31	520
1371.48	516
1369.65	539
1367.82	505
1365.99	527.5
1364.16	516
1362.32	510
1360.49	505
1358.66	489
1356.82	499.5
1354.99	514
1353.16	522
1351.32	504
1349.48	509
1347.65	511
1345.81	504
1343.98	505.5
1342.14	501
1340.3	505
1338.46	524
1336.62	515.5
1334.79	517
1332.95	525
1331.11	523
1329.27	574
1327.42	573
1325.58	614
1323.74	633.5
1321.9	599.5
1320.06	667
1318.21	675
1316.37	678
1314.53	699
1312.68	728
1310.84	795.5
1308.99	834.5
1307.15	851
1305.3	918
1303.45	914
1301.61	910.5
1299.76	877
1297.91	851
1296.06	861.5
1294.21	753
1292.36	707
1290.51	672
1288.66	682
1286.81	641
1284.96	605
1283.11	639.5
1281.26	594
1279.4	633.5
1277.55	620
1275.7	603
1273.84	627.5
1271.99	631
1270.13	602
1268.28	594
1266.42	625.5
1264.56	597.5
1262.71	619
1260.85	621
1258.99	562
1257.13	561
1255.27	530
1253.41	550
1251.56	530
1249.7	503
1247.83	539
1245.97	479.5
1244.11	487.5
1242.25	459.5
1240.39	457
1238.52	476
1236.66	438
1234.8	453
1232.93	434
1231.07	452
1229.2	443
1227.34	448
1225.47	412
1223.6	416
1221.74	405
1219.87	416
1218	417.5
1216.13	401.5
1214.26	403.5
1212.39	436
1210.53	392.5
1208.65	383
1206.78	397
1204.91	379.5
1203.04	400
1201.17	411.5
1199.3	388
1197.42	399
1195.55	399
1193.68	408.5
1191.8	389
1189.93	394.5
1188.05	388
1186.17	344
1184.3	413.5
1182.42	389.5
1180.54	365
1178.67	414
1176.79	415
1174.91	361
1173.03	387
1171.15	399
1169.27	371
1167.39	401
1165.51	408.5
1163.63	378
1161.75	389
1159.86	390
1157.98	350
1156.1	424
1154.21	393
1152.33	370
1150.44	401
1148.56	373
1146.67	397.5
1144.79	412
1142.9	400
1141.01	408
1139.12	423.5
1137.24	414.5
1135.35	427.5
1133.46	462
1131.57	477
1129.68	477
1127.79	498
1125.9	521
1124.01	489
1122.12	498
1120.22	487
1118.33	493.5
1116.44	512
1114.54	450.5
1112.65	472
1110.75	476
1108.86	461
1106.96	506
1105.07	504
1103.17	497.5
1101.27	503.5
1099.38	509.5
1097.48	566.5
1095.58	593.5
1093.68	608
1091.78	624
1089.88	618
1087.98	619
1086.08	650
1084.18	616
1082.28	670
1080.38	660
1078.47	659
1076.57	665
1074.67	610
1072.76	618
1070.86	625.5
1068.95	647.5
1067.05	642.5
1065.14	638
1063.24	639.5
1061.33	605.5
1059.42	596.5
1057.51	536
1055.6	526
1053.7	519.5
1051.79	500
1049.88	502.5
1047.97	500
1046.06	517
1044.14	473
1042.23	458
1040.32	488
1038.41	496
1036.5	484
1034.58	477
1032.67	494
1030.75	497
1028.84	470
1026.92	500
1025.01	498.5
1023.09	490.5
1021.17	484
1019.26	515
1017.34	448
1015.42	476
1013.5	490.5
1011.58	456.5
1009.66	477.5
1007.74	488
1005.82	486.5
1003.9	526
1001.98	484
1000.06	507
998.134	508.5
996.212	502
994.288	523.5
992.364	553
990.44	523
988.515	575.5
986.589	559
984.663	615
982.737	604
980.81	636
978.883	651.5
976.955	629.5
975.027	686.5
973.098	657
971.169	684
969.239	653
967.308	665.5
965.378	680
963.447	682.5
961.516	683
959.583	696
957.65	711.5
955.718	711
953.784	719
951.85	724
949.916	756.5
947.981	733
946.045	773
944.109	771.5
942.173	799
940.236	779
938.298	753.5
936.36	759
934.422	728
932.484	660.5
930.544	650
928.604	623.5
926.664	575
924.724	552.5
922.782	548.5
920.84	513.5
918.898	561
916.955	537.5
915.012	502
913.068	530
911.124	503.5
909.18	509
907.235	562.5
905.289	514.5
903.343	523
901.397	551
899.45	501
897.502	550
895.554	556.5
893.605	584
891.657	589
889.707	577.5
887.758	609
885.807	570
883.856	597.5
881.905	614
879.953	609
878.001	559
876.048	592.5
874.094	638
872.14	608.5
870.186	597.5
868.232	585
866.276	600
864.321	616
862.365	569
860.408	613
858.451	554
856.493	576
854.535	557
852.576	585
850.617	544.5
848.658	536
846.698	566
844.737	528
842.776	559.5
840.814	540
838.852	550.5
836.89	523
834.927	514
832.963	519
830.999	489.5
829.035	505
827.07	484.5
825.105	468
823.139	450.5
821.172	452
819.206	454
817.238	445.5
815.27	441.5
813.301	424
811.333	425
809.363	395
807.394	403
805.424	386
803.453	399.5
801.482	384
799.509	390
797.538	333
795.565	372
793.592	340
791.618	343
789.643	368
787.669	348
785.693	371.5
783.718	361
781.742	363
779.765	367
777.788	331.5
775.811	321
773.832	342
771.853	312
769.875	335
767.895	346.5
765.915	313.5
763.934	315.5
761.953	337
759.972	324.5
757.99	313.5
756.007	326.5
754.024	312
752.041	348
750.056	326.5
748.072	337
746.087	357
744.102	344.5
742.116	342.5
740.13	322.5
738.143	356.5
736.155	327.5
734.167	339
732.179	338.5
730.19	321.5
728.2	327
726.21	352
724.22	342.5
722.229	297.5
720.237	343.5
718.246	357.5
716.253	322
714.26	331
712.267	320
710.273	316
708.279	301
706.284	324
704.289	312
702.293	306
700.296	315
698.3	327.5
696.303	315.5
694.305	296
692.307	327.5
690.307	284
688.308	327
686.309	304
684.308	335.5
682.308	313.5
680.306	314
678.304	325
676.302	336.5
674.3	331
672.296	326.5
670.293	347
668.289	311
666.284	366
664.278	331.5
662.273	329
660.266	344
658.26	346.5
656.252	346
654.244	361
652.237	341.5
650.227	336
648.218	349.5
646.209	344
644.198	305
642.188	370
640.177	346
638.165	354
636.153	362
634.14	390
632.128	325
630.113	372
628.099	344.5
626.085	370
624.07	372.5
622.054	381
620.038	389
618.021	375.5
616.004	384.5
613.986	389.5
611.968	380
609.949	377.5
607.93	354
605.911	376
603.891	396.5
601.87	352.5
599.848	372
597.827	362.5
595.805	390.5
593.782	389
591.759	366
589.735	364.5
587.711	380.5
585.687	332
583.661	381
581.636	342
579.609	362.5
577.583	383
575.555	352
573.527	358
571.5	299
569.471	374
567.441	331
565.412	359
563.382	406
561.351	405
559.32	400
557.289	435.5
555.257	385
553.223	439
551.19	440
549.157	474
547.122	486.5
545.088	514
543.053	586
541.017	608
538.981	705.5
536.943	799.5
534.907	1024.5
532.869	1310
530.831	1881
528.792	2819
526.752	4500
524.713	6786
522.673	8808.5
520.632	9094
518.591	7557
516.549	5531.5
514.507	3734
512.464	2397.5
510.42	1607
508.377	1121
506.332	860
504.288	721.5
502.242	622
500.196	605
498.15	548
496.104	541.5
494.056	509
492.008	517
489.96	521
487.911	502.5
485.862	489.5
483.812	472
481.761	474
479.71	456
477.659	459
475.607	452
473.555	456
471.502	432
469.448	454.5
467.395	439.5
465.34	441.5
463.285	458
461.23	430.5
459.174	455.5
457.118	447.5
455.061	449
453.003	405
450.945	483
448.887	456
446.828	465
444.768	438
442.708	469.5
440.647	474
438.587	477
436.525	484
434.463	511
432.4	503
430.337	496
428.274	504
426.21	528
424.145	519
422.079	530.5
420.014	490
417.948	497
415.882	528
413.814	524.5
411.746	500
409.679	493
407.609	519
405.54	530.5
403.47	532.5
401.401	541.5
399.329	522
397.258	528.5
395.187	541
393.114	553.5
391.041	559
388.968	535
386.895	527
384.82	552
382.745	552.5
380.67	552
378.594	585
376.517	539
374.44	552
372.363	539
370.286	557.5
368.207	558
366.128	562.5
364.049	592
361.969	590.5
359.888	577
357.807	615.5
355.725	575.5
353.643	592
351.561	592
349.477	626
347.394	584
345.31	609
343.226	642
341.141	620
339.055	627.5
336.968	673
334.882	676.5
332.795	687
330.707	679
328.618	701.5
326.53	701
324.44	744
322.351	694
320.26	748.5
318.17	782
316.078	813
313.987	884
311.895	891
309.802	906
307.708	987
305.614	1000
303.52	975.5
301.425	984
299.329	972
297.233	952.5
295.137	876
293.039	883
290.942	863.5
288.844	834.5
286.745	854
284.647	812
282.546	787
280.446	843.5
278.346	821
276.245	770
274.143	826
272.041	813
269.939	811
267.835	805
265.731	846
263.627	813
261.522	830
259.417	847
257.311	866.5
255.204	879.5
253.098	858
250.99	853
248.882	927.5
246.774	873
244.664	897.5
242.555	921
240.445	919
238.334	908
236.223	934
234.112	911
232	930
229.888	984.5
227.775	970
225.661	964
223.546	963.5
221.431	953.5
219.316	973
217.201	1024
215.084	998
212.967	973
210.85	1018
208.732	1053.5
206.614	1021
204.495	1003.5
202.375	981
200.256	1001
198.135	1078
196.014	1015
193.893	1015
191.771	1027.5
189.648	1019
187.525	1005
185.401	1068.5
183.277	1051
181.152	1021
179.027	1090
176.901	1074
174.775	1074
172.648	1095
170.521	1103
168.393	1116.5
166.265	1097
164.136	1145
162.007	1193.5
159.876	1187
157.746	1216
155.615	1206
153.483	1248
151.351	1288
149.219	1304
147.086	1342
144.952	1367
142.818	1376
140.684	1431
138.548	1466
136.413	1496
134.276	1592
132.139	1580
130.002	1605
127.864	1681
125.725	1740.5
123.587	1811
121.447	1871
119.307	1907
117.166	1958
115.026	2029.5
112.885	2085
110.743	2089
108.6	2251
106.456	2260
104.313	2296
102.169	2263.5
100.023	2170.5
97.8789	2092
95.7328	1920
93.5869	1666.5
91.4392	1453
89.2919	1214
87.1447	963
84.9959	762
