3528.51	50
3527.23	39
3525.95	53.5
3524.67	54
3523.39	58
3522.1	69
3520.82	73.5
3519.54	63
3518.26	58.5
3516.97	53.5
3515.69	60
3514.4	54
3513.12	44
3511.84	58.5
3510.55	56.5
3509.26	60.5
3507.98	65
3506.69	59
3505.41	72.5
3504.12	64.5
3502.83	68
3501.54	71.5
3500.26	58.5
3498.97	47.5
3497.68	59.5
3496.39	70
3495.1	67
3493.81	59
3492.52	64.5
3491.23	79
3489.94	76.5
3488.65	73
3487.36	74.5
3486.07	75
3484.78	64
3483.49	70.5
3482.19	75
3480.9	80.5
3479.61	79.5
3478.31	73.5
3477.02	93
3475.73	91.5
3474.43	85.5
3473.14	75.5
3471.84	78.5
3470.54	78
3469.25	66
3467.95	75
3466.66	80
3465.36	85
3464.06	95
3462.76	90.5
3461.46	95
3460.17	95
3458.87	96.5
3457.57	86.5
3456.27	86.5
3454.97	76.5
3453.67	90.5
3452.37	85.5
3451.07	84.5
3449.77	104
3448.47	101
3447.16	105.5
3445.86	105
3444.56	108
3443.26	99
3441.95	96.5
3440.65	95
3439.35	92.5
3438.04	100
3436.74	105.5
3435.43	105
3434.13	112
3432.82	130.5
3431.52	128.5
3430.21	122
3428.9	123
3427.6	120
3426.29	121
3424.98	119
3423.67	118.5
3422.36	117
3421.06	136.5
3419.75	134.5
3418.44	145.5
3417.13	140.5
3415.82	129
3414.51	144
3413.2	141.5
3411.88	138
3410.57	129
3409.26	131.5
3407.95	138
3406.64	135.5
3405.32	144
3404.01	137.5
3402.7	155.5
3401.38	160.5
3400.07	158.5
3398.75	150
3397.44	151
3396.12	148
3394.81	139
3393.49	145.5
3392.18	135
3390.86	165
3389.54	154.5
3388.23	164
3386.91	168.5
3385.59	178
3384.27	164.5
3382.95	157.5
3381.63	158
3380.31	147.5
3378.99	155
3377.67	172
3376.35	167.5
3375.03	184.5
3373.71	176
3372.39	194
3371.07	183
3369.75	185
3368.42	183
3367.1	172.5
3365.78	170.5
3364.45	175.5
3363.13	176.5
3361.81	178
3360.48	173.5
3359.16	184
3357.83	194
3356.51	205
3355.18	202.5
3353.85	192.5
3352.53	185.5
3351.2	188
3349.87	180.5
3348.54	187
3347.22	190.5
3345.89	195
3344.56	192
3343.23	212.5
3341.9	210
3340.57	205
3339.24	193
3337.91	195.5
3336.58	194
3335.25	200
3333.92	192
3332.58	198
3331.25	204
3329.92	190
3328.59	198
3327.25	233
3325.92	226
3324.58	210.5
3323.25	193.5
3321.92	205
3320.58	207
3319.25	201.5
3317.91	196.5
3316.57	198.5
3315.24	205
3313.9	209.5
3312.56	216
3311.23	229
3309.89	214
3308.55	227
3307.21	221
3305.87	229
3304.53	220
3303.19	208.5
3301.85	212
3300.51	225
3299.17	228.5
3297.83	233.5
3296.49	234.5
3295.15	241
3293.81	237
3292.46	227.5
3291.12	235
3289.78	215
3288.43	228.5
3287.09	239
3285.75	222.5
3284.4	240
3283.06	242.5
3281.71	244.5
3280.37	247.5
3279.02	239
3277.67	248
3276.33	235
3274.98	234
3273.63	240
3272.28	233
3270.94	245
3269.59	257
3268.24	261.5
3266.89	271.5
3265.54	272
3264.19	266
3262.84	283.5
3261.49	288
3260.14	274.5
3258.79	279.5
3257.44	284
3256.08	282
3254.73	302
3253.38	297
3252.03	319
3250.67	342
3249.32	333.5
3247.96	360.5
3246.61	363
3245.26	358.5
3243.9	363.5
3242.54	370.5
3241.19	393
3239.83	400
3238.48	394
3237.12	413
3235.76	442
3234.41	443.5
3233.05	463
3231.69	454
3230.33	482
3228.97	460.5
3227.61	474
3226.25	479.5
3224.89	484.5
3223.53	506.5
3222.17	505
3220.81	526
3219.45	535.5
3218.09	531
3216.72	529
3215.36	534
3214	533
3212.63	524
3211.27	541
3209.91	535
3208.54	548
3207.18	548
3205.81	553
3204.45	554
3203.08	579.5
3201.71	550
3200.35	581
3198.98	576
3197.61	571
3196.25	562.5
3194.88	549.5
3193.51	590.5
3192.14	572.5
3190.77	587
3189.4	601.5
3188.03	580
3186.66	602
3185.29	627
3183.92	601.5
3182.55	603.5
3181.18	620
3179.81	601.5
3178.44	598
3177.06	611
3175.69	622
3174.32	624.5
3172.94	623
3171.57	629.5
3170.2	655
3168.82	651
3167.45	649.5
3166.07	662.5
3164.69	655.5
3163.32	647
3161.94	673.5
3160.56	672
3159.19	663.5
3157.81	671.5
3156.43	711
3155.05	694.5
3153.67	715.5
3152.3	711.5
3150.92	698.5
3149.54	697
3148.16	706.5
3146.78	718
3145.4	709
3144.01	730
3142.63	726
3141.25	726.5
3139.87	734.5
3138.49	751.5
3137.1	760
3135.72	749.5
3134.34	774.5
3132.95	766.5
3131.57	765
3130.18	777
3128.8	795
3127.41	788
3126.03	785
3124.64	814
3123.25	797
3121.87	828.5
3120.48	827.5
3119.09	808.5
3117.7	823.5
3116.32	806
3114.93	822.5
3113.54	827.5
3112.15	832
3110.76	858.5
3109.37	851
3107.98	874.5
3106.59	856
3105.2	864.5
3103.8	849.5
3102.41	869
3101.02	842
3099.63	883.5
3098.23	860.5
3096.84	873
3095.45	884
3094.05	893.5
3092.66	900
3091.26	890
3089.87	914
3088.47	893
3087.08	882
3085.68	885.5
3084.28	881
3082.89	898
3081.49	908.5
3080.09	902
3078.69	909.5
3077.3	922.5
3075.9	939
3074.5	928
3073.1	929
3071.7	928.5
3070.3	923
3068.9	904.5
3067.5	921
3066.09	939
3064.69	955
3063.29	955
3061.89	953.5
3060.48	936.5
3059.08	942
3057.68	932.154
3056.27	937.921
3054.87	950.315
3053.46	954.93
3052.06	959.545
3050.65	959.545
3049.25	932
3047.84	973
3046.44	967.5
3045.03	976
3043.62	985.5
3042.21	991.5
3040.81	1002
3039.4	989.5
3037.99	1007.5
3036.58	993.5
3035.17	968.5
3033.76	1023.5
3032.35	1004
3030.94	1009
3029.53	1001.5
3028.12	1043.5
3026.71	1026
3025.29	999.5
3023.88	1029.5
3022.47	995.5
3021.06	1009
3019.64	1025.5
3018.23	1027
3016.82	1053.5
3015.4	1042.5
3013.99	1054
3012.57	1060.5
3011.15	1051.5
3009.74	1079
3008.32	1070.5
3006.91	1069.5
3005.49	1062.5
3004.07	1050.5
3002.65	1071
3001.24	1107
2999.82	1100
2998.4	1107.5
2996.98	1111.5
2995.56	1108
2994.14	1114
2992.72	1141
2991.3	1126
2989.88	1121.5
2988.46	1130.5
2987.03	1124.5
2985.61	1153
2984.19	1149
2982.77	1162
2981.34	1181
2979.92	1204
2978.49	1220.5
2977.07	1226
2975.65	1202
2974.22	1219
2972.79	1221.5
2971.37	1260
2969.94	1269
2968.52	1270
2967.09	1247.5
2965.66	1282
2964.23	1268.5
2962.81	1283.5
2961.38	1309.5
2959.95	1328
2958.52	1352.5
2957.09	1316.5
2955.66	1330
2954.23	1348
2952.8	1350
2951.37	1344
2949.94	1377.5
2948.5	1390.5
2947.07	1424
2945.64	1422
2944.21	1432
2942.77	1466
2941.34	1465
2939.91	1458
2938.47	1486.5
2937.04	1501
2935.6	1543
2934.17	1536
2932.73	1561.5
2931.29	1577.5
2929.86	1614.5
2928.42	1600
2926.98	1615.5
2925.55	1612
2924.11	1652.5
2922.67	1651.5
2921.23	1622.5
2919.79	1650.5
2918.35	1692.5
2916.91	1695
2915.47	1660
2914.03	1686.5
2912.59	1711
2911.15	1688
2909.71	1719
2908.26	1715.5
2906.82	1697
2905.38	1708.5
2903.94	1708
2902.49	1767.5
2901.05	1733
2899.6	1741.5
2898.16	1761.5
2896.71	1799
2895.27	1785.5
2893.82	1793.5
2892.38	1797
2890.93	1799.5
2889.48	1748
2888.03	1780.5
2886.59	1773
2885.14	1794
2883.69	1815
2882.24	1828.5
2880.79	1814
2879.34	1795
2877.89	1787.5
2876.44	1802
2874.99	1817.5
2873.54	1783.5
2872.09	1818
2870.64	1789.5
2869.18	1785
2867.73	1789.5
2866.28	1807.5
2864.83	1770
2863.37	1797.5
2861.92	1816
2860.46	1825.5
2859.01	1815
2857.55	1790
2856.1	1817
2854.64	1794
2853.19	1810
2851.73	1803
2850.27	1802.5
2848.81	1777
2847.36	1793
2845.9	1765
2844.44	1752.5
2842.98	1724.5
2841.52	1687
2840.06	1650
2838.6	1616.5
2837.14	1567.5
2835.68	1565
2834.22	1512
2832.76	1524.5
2831.3	1492
2829.83	1453.5
2828.37	1472
2826.91	1436.5
2825.44	1426
2823.98	1393.5
2822.52	1395.5
2821.05	1366.5
2819.59	1372
2818.12	1365.5
2816.66	1372
2815.19	1357.5
2813.72	1358
2812.26	1336
2810.79	1338.5
2809.32	1339
2807.85	1333.5
2806.38	1320.5
2804.92	1313.5
2803.45	1300
2801.98	1312
2800.51	1302.5
2799.04	1316.5
2797.57	1293
2796.1	1306
2794.62	1321.5
2793.15	1317.5
2791.68	1287.5
2790.21	1293.5
2788.73	1263
2787.26	1287.5
2785.79	1291
2784.31	1270.5
2782.84	1279
2781.36	1266.5
2779.89	1286.5
2778.41	1301
2776.94	1310
2775.46	1309.5
2773.99	1278
2772.51	1302
2771.03	1290.5
2769.55	1273
2768.07	1281
2766.6	1292
2765.12	1292.5
2763.64	1305.5
2762.16	1284
2760.68	1301.5
2759.2	1294
2757.72	1289
2756.24	1291.5
2754.75	1316.5
2753.27	1275.5
2751.79	1276
2750.31	1297
2748.82	1291
2747.34	1306.5
2745.86	1332.5
2744.37	1329
2742.89	1309
2741.4	1284
2739.92	1291
2738.43	1266.5
2736.94	1296.5
2735.46	1292.5
2733.97	1292
2732.48	1301
2731	1321.5
2729.51	1317
2728.02	1321.5
2726.53	1332
2725.04	1306
2723.55	1313.5
2722.06	1322.5
2720.57	1286.5
2719.08	1294.5
2717.59	1311.5
2716.1	1291.5
2714.61	1297
2713.11	1320
2711.62	1305
2710.13	1302
2708.64	1316
2707.14	1289.5
2705.65	1274.5
2704.15	1271
2702.66	1273.5
2701.16	1259
2699.67	1272.5
2698.17	1293.5
2696.67	1259.5
2695.18	1285
2693.68	1270
2692.18	1291.5
2690.69	1262
2689.19	1256.5
2687.69	1238
2686.19	1224
2684.69	1233.5
2683.19	1220.5
2681.69	1218
2680.19	1232.5
2678.69	1236
2677.19	1218.5
2675.68	1228
2674.18	1227
2672.68	1208
2671.18	1219.5
2669.67	1243.5
2668.17	1185.5
2666.66	1215.5
2665.16	1210.5
2663.66	1242.5
2662.15	1222
2660.64	1219
2659.14	1232.5
2657.63	1234
2656.13	1233.5
2654.62	1197
2653.11	1197
2651.6	1214.5
2650.09	1199
2648.58	1204.5
2647.08	1212.5
2645.57	1210
2644.06	1194
2642.55	1202
2641.04	1190.5
2639.52	1182.5
2638.01	1203.5
2636.5	1169.5
2634.99	1171.5
2633.48	1156.5
2631.96	1169
2630.45	1197.5
2628.94	1143.5
2627.42	1198.5
2625.91	1193
2624.39	1156.5
2622.88	1156.5
2621.36	1148.5
2619.85	1155.5
2618.33	1139
2616.81	1165.5
2615.3	1143
2613.78	1134
2612.26	1140
2610.74	1146.5
2609.22	1133
2607.7	1172.5
2606.18	1130
2604.66	1145
2603.14	1153.5
2601.62	1140.5
2600.1	1122
2598.58	1115
2597.06	1092.5
2595.54	1126
2594.01	1140
2592.49	1106.5
2590.97	1116.5
2589.44	1109.5
2587.92	1112
2586.39	1091.5
2584.87	1105.5
2583.34	1095
2581.82	1089.5
2580.29	1106
2578.76	1072.5
2577.24	1106.5
2575.71	1110.5
2574.18	1121.5
2572.65	1094.5
2571.13	1082
2569.6	1064.5
2568.07	1094
2566.54	1088
2565.01	1084
2563.48	1093
2561.95	1065.5
2560.42	1078.5
2558.88	1076.5
2557.35	1052.5
2555.82	1058
2554.29	1070
2552.75	1059.5
2551.22	1048
2549.69	1057.5
2548.15	1056.5
2546.62	1052.5
2545.08	1061
2543.55	1044.5
2542.01	1062.5
2540.47	1041
2538.94	1040
2537.4	1045
2535.86	1031.5
2534.33	1034
2532.79	1043
2531.25	1029.5
2529.71	1000
2528.17	1017
2526.63	1003.5
2525.09	1016
2523.55	995.5
2522.01	1022
2520.47	1014.5
2518.92	983.5
2517.38	986
2515.84	991.5
2514.3	991.5
2512.75	989.5
2511.21	988.5
2509.67	989
2508.12	964
2506.58	982
2505.03	973.5
2503.49	989.5
2501.94	964.5
2500.39	995
2498.85	966
2497.3	960.5
2495.75	961
2494.2	938.5
2492.65	948
2491.11	946
2489.56	949
2488.01	930
2486.46	928
2484.91	924.5
2483.36	948.5
2481.8	926.5
2480.25	928.5
2478.7	927.5
2477.15	920
2475.6	919
2474.04	930
2472.49	907
2470.93	904
2469.38	900
2467.83	909
2466.27	915
2464.71	924.5
2463.16	895
2461.6	886.5
2460.05	902
2458.49	867
2456.93	868
2455.37	860
2453.81	873.5
2452.26	863
2450.7	882
2449.14	859.5
2447.58	893
2446.02	879
2444.46	854.5
2442.9	867
2441.33	832.5
2439.77	854
2438.21	846
2436.65	859.5
2435.08	843.5
2433.52	872.5
2431.96	876.5
2430.39	835.5
2428.83	854
2427.26	854
2425.7	847
2424.13	839.5
2422.56	816.5
2421	828.5
2419.43	828
2417.86	849
2416.3	828.5
2414.73	826
2413.16	821
2411.59	832.5
2410.02	812.5
2408.45	809
2406.88	804.5
2405.31	812
2403.74	826.5
2402.17	821
2400.6	793
2399.02	827.5
2397.45	805
2395.88	801.5
2394.3	827
2392.73	818.5
2391.16	814.5
2389.58	795.5
2388.01	807.5
2386.43	822.5
2384.86	801.5
2383.28	779
2381.7	802
2380.13	804
2378.55	809
2376.97	817
2375.39	791
2373.81	781.5
2372.23	776
2370.65	783.5
2369.07	793.5
2367.49	763
2365.91	775.5
2364.33	763.5
2362.75	782
2361.17	776.5
2359.59	771
2358.01	777.5
2356.42	768
2354.84	766
2353.25	752
2351.67	753
2350.09	751.5
2348.5	756.5
2346.92	765.5
2345.33	741
2343.74	770.5
2342.16	767.5
2340.57	759.5
2338.98	768
2337.39	737.5
2335.81	733.5
2334.22	725
2332.63	769
2331.04	723
2329.45	749.5
2327.86	777
2326.27	760.5
2324.68	747.5
2323.09	762
2321.49	752
2319.9	728
2318.31	752.5
2316.72	710.5
2315.12	743
2313.53	714.5
2311.93	714
2310.34	719
2308.74	702
2307.15	725.5
2305.55	710
2303.96	714
2302.36	707.5
2300.76	690.5
2299.17	690
2297.57	710.5
2295.97	678.5
2294.37	690
2292.77	698.5
2291.17	701
2289.57	693
2287.97	689
2286.37	679.5
2284.77	695
2283.17	699.5
2281.57	667
2279.96	667.5
2278.36	689
2276.76	673
2275.15	674
2273.55	671
2271.95	676.5
2270.34	669
2268.74	680
2267.13	655
2265.52	653
2263.92	654
2262.31	654.5
2260.7	650
2259.1	649.5
2257.49	631.5
2255.88	631
2254.27	647.5
2252.66	641.5
2251.05	629.5
2249.44	651
2247.83	647
2246.22	631
2244.61	639.5
2243	621.5
2241.39	629
2239.77	624.5
2238.16	636
2236.55	629.5
2234.93	627
2233.32	620.5
2231.7	618.5
2230.09	615.5
2228.47	633.5
2226.86	602
2225.24	605
2223.63	617.5
2222.01	613.5
2220.39	590
2218.77	612
2217.16	615
2215.54	602.5
2213.92	610
2212.3	602
2210.68	605
2209.06	624
2207.44	611.5
2205.82	595
2204.19	603
2202.57	589.5
2200.95	574.5
2199.33	581.5
2197.7	597
2196.08	596
2194.46	616.5
2192.83	593.5
2191.21	609
2189.58	596
2187.96	590
2186.33	570.5
2184.7	578.5
2183.08	590.5
2181.45	572.5
2179.82	574.5
2178.19	575
2176.57	567
2174.94	588
2173.31	572
2171.68	568
2170.05	533.5
2168.42	584.5
2166.79	553.5
2165.16	558
2163.52	569.5
2161.89	542
2160.26	564
2158.63	534.5
2156.99	562
2155.36	540.5
2153.73	549
2152.09	535.5
2150.46	544.5
2148.82	537
2147.18	524.5
2145.55	529.5
2143.91	524
2142.27	541.5
2140.64	539.5
2139	533.5
2137.36	544
2135.72	532
2134.08	533.5
2132.44	517.5
2130.8	499.5
2129.16	518
2127.52	505.5
2125.88	501.5
2124.24	491
2122.6	492.5
2120.95	515.5
2119.31	499
2117.67	502
2116.02	505
2114.38	498.5
2112.74	484
2111.09	500
2109.45	493.5
2107.8	471.5
2106.15	494.5
2104.51	480
2102.86	506.5
2101.21	499
2099.56	491
2097.92	480.5
2096.27	500
2094.62	472
2092.97	475.5
2091.32	456.5
2089.67	468.5
2088.02	476.5
2086.37	475
2084.72	496
2083.06	483.5
2081.41	488.5
2079.76	478.5
2078.1	489.5
2076.45	474.5
2074.8	456.5
2073.14	462.5
2071.49	459
2069.83	448.5
2068.18	462
2066.52	455.5
2064.86	451
2063.21	479
2061.55	462.5
2059.89	474
2058.23	473
2056.57	457.5
2054.92	464
2053.26	434
2051.6	431
2049.94	455
2048.27	436.5
2046.61	460
2044.95	449
2043.29	466.5
2041.63	459.5
2039.97	444
2038.3	463.5
2036.64	444.5
2034.97	430
2033.31	432
2031.64	409
2029.98	443
2028.31	421.5
2026.65	427
2024.98	444
2023.31	441
2021.65	418.5
2019.98	431
2018.31	419.5
2016.64	409
2014.97	412
2013.3	415
2011.63	419
2009.96	418.5
2008.29	407.5
2006.62	405.5
2004.95	422.5
2003.28	404
2001.6	411.5
1999.93	421
1998.26	385.5
1996.58	410
1994.91	402.5
1993.24	404.5
1991.56	400.5
1989.89	395
1988.21	427.5
1986.53	419
1984.86	414
1983.18	406
1981.5	399
1979.82	392.5
1978.15	394.5
1976.47	385.5
1974.79	367
1973.11	369
1971.43	393.5
1969.75	407
1968.07	374
1966.38	409.5
1964.7	382
1963.02	406
1961.34	404.5
1959.66	368.5
1957.97	379
1956.29	387
1954.6	370.5
1952.92	362
1951.23	366.5
1949.55	401.5
1947.86	393.5
1946.18	375
1944.49	381
1942.8	375
1941.11	383
1939.43	374
1937.74	374
1936.05	369.5
1934.36	357
1932.67	353
1930.98	364.5
1929.29	359.5
1927.6	373.5
1925.91	360.5
1924.21	370.5
1922.52	339.5
1920.83	355.5
1919.14	343.5
1917.44	345.5
1915.75	351.5
1914.05	349.5
1912.36	355.5
1910.66	365.5
1908.97	360
1907.27	342
1905.58	351
1903.88	355.5
1902.18	318.5
1900.48	342
1898.79	339
1897.09	313.5
1895.39	326
1893.69	348.5
1891.99	339
1890.29	343
1888.59	322
1886.89	333
1885.18	316
1883.48	324.5
1881.78	333.5
1880.08	309.5
1878.37	307.5
1876.67	327
1874.96	316
1873.26	324
1871.55	312
1869.85	331.5
1868.14	317.5
1866.44	314
1864.73	319
1863.02	304
1861.32	322
1859.61	322
1857.9	310
1856.19	306.5
1854.48	314
1852.77	321
1851.06	303.5
1849.35	311.5
1847.64	308
1845.93	316
1844.21	310.5
1842.5	285.5
1840.79	307.5
1839.08	301
1837.36	306
1835.65	309
1833.93	315
1832.22	320
1830.5	307.5
1828.79	317.5
1827.07	316.5
1825.36	305
1823.64	299.5
1821.92	297.5
1820.2	303
1818.48	307.5
1816.77	299
1815.05	289
1813.33	297
1811.61	296.5
1809.89	302
1808.16	286.5
1806.44	291
1804.72	288
1803	279.5
1801.28	287
1799.55	280
1797.83	302
1796.11	283.5
1794.38	281
1792.66	282.5
1790.93	289.5
1789.21	284.5
1787.48	295.5
1785.75	307
1784.03	292
1782.3	290.5
1780.57	275
1778.84	281.5
1777.11	293
1775.38	287.5
1773.66	302.5
1771.93	289
1770.19	304.5
1768.46	313
1766.73	298
1765	303
1763.27	305.5
1761.54	321
1759.8	332
1758.07	359.5
1756.34	385
1754.6	363
1752.87	396.5
1751.13	407
1749.4	413
1747.66	415
1745.92	422.5
1744.19	427
1742.45	391
1740.71	396.5
1738.97	384
1737.23	377.5
1735.49	350.5
1733.75	353
1732.01	332
1730.27	336.5
1728.53	330.5
1726.79	300.5
1725.05	316
1723.31	311.5
1721.57	271
1719.82	279
1718.08	304.5
1716.34	286.5
1714.59	278.5
1712.85	281.5
1711.1	280.5
1709.36	289.5
1707.61	281.5
1705.86	292.5
1704.12	283
1702.37	275
1700.62	272.5
1698.87	276
1697.12	265.5
1695.37	268.5
1693.62	277
1691.87	290
1690.12	287.5
1688.37	277
1686.62	272
1684.87	280.5
1683.12	283
1681.36	295
1679.61	302
1677.86	295
1676.1	310.5
1674.35	326
1672.59	349.5
1670.84	382.5
1669.08	394
1667.33	427.5
1665.57	439.5
1663.81	494.5
1662.06	551.5
1660.3	574.5
1658.54	637.5
1656.78	672
1655.02	653.5
1653.26	628
1651.5	594
1649.74	514
1647.98	479
1646.22	416.5
1644.46	367
1642.7	372
1640.93	333
1639.17	342
1637.41	318
1635.64	294
1633.88	308.5
1632.11	301
1630.35	285
1628.58	294.5
1626.81	274
1625.05	269
1623.28	273
1621.51	273
1619.75	268.5
1617.98	259
1616.21	282
1614.44	276
1612.67	260.5
1610.9	263
1609.13	259.5
1607.36	260.5
1605.58	250.5
1603.81	259
1602.04	267.5
1600.27	263.5
1598.49	248.5
1596.72	250.5
1594.95	275
1593.17	267
1591.4	256.5
1589.62	247.5
1587.84	274.5
1586.07	262
1584.29	265.5
1582.51	244
1580.74	259.5
1578.96	269.5
1577.18	273.5
1575.4	270
1573.62	265.5
1571.84	268.5
1570.06	271.5
1568.28	268.5
1566.5	254.5
1564.72	251.5
1562.93	252
1561.15	244
1559.37	261.5
1557.58	252
1555.8	262
1554.02	272
1552.23	273
1550.45	275.5
1548.66	271.5
1546.87	274
1545.09	259.5
1543.3	269
1541.51	252.5
1539.72	269.5
1537.94	269
1536.15	265
1534.36	258
1532.57	275.5
1530.78	287.5
1528.99	273
1527.2	280
1525.4	274
1523.61	283
1521.82	272.5
1520.03	274.5
1518.23	265.5
1516.44	278
1514.65	283.5
1512.85	299.5
1511.06	298.5
1509.26	294
1507.46	292
1505.67	315.5
1503.87	300
1502.07	312.5
1500.28	309
1498.48	328.5
1496.68	337
1494.88	328
1493.08	351.5
1491.28	356.5
1489.48	354
1487.68	403.5
1485.88	383.5
1484.08	424
1482.27	444
1480.47	446
1478.67	486.5
1476.86	527
1475.06	578.5
1473.25	610
1471.45	675.5
1469.64	746.5
1467.84	834.5
1466.03	894
1464.23	973.5
1462.42	1044.5
1460.61	1103
1458.8	1146.5
1456.99	1172.5
1455.18	1211.5
1453.37	1244.5
1451.56	1292.5
1449.75	1373
1447.94	1422
1446.13	1476.5
1444.32	1546
1442.51	1580
1440.7	1621
1438.88	1582
1437.07	1459
1435.26	1350.5
1433.44	1189.5
1431.63	1012.5
1429.81	896
1427.99	780
1426.18	725
1424.36	656.5
1422.54	623
1420.73	589
1418.91	550
1417.09	506
1415.27	499
1413.45	451
1411.63	438.5
1409.81	418
1407.99	405.5
1406.17	413
1404.35	395.5
1402.53	372
1400.7	358
1398.88	362.5
1397.06	353
1395.23	331
1393.41	322
1391.58	339.5
1389.76	333.5
1387.93	347
1386.11	353.5
1384.28	335
1382.45	351.5
1380.62	361.5
1378.8	371.5
1376.97	380
1375.14	360
1373.31	392.5
1371.48	392.5
1369.65	391
1367.82	392
1365.99	393
1364.16	388
1362.32	403.5
1360.49	395.5
1358.66	374
1356.82	402
1354.99	387
1353.16	381.5
1351.32	405.5
1349.48	395
1347.65	379
1345.81	413
1343.98	419
1342.14	439.5
1340.3	436
1338.46	432.5
1336.62	435.5
1334.79	434
1332.95	473
1331.11	475.5
1329.27	495.5
1327.42	526
1325.58	552
1323.74	611.5
1321.9	657.5
1320.06	701
1318.21	727
1316.37	799.5
1314.53	858
1312.68	892
1310.84	991.5
1308.99	1033.5
1307.15	1109
1305.3	1171
1303.45	1219.5
1301.61	1241
1299.76	1246
1297.91	1218.5
1296.06	1150.5
1294.21	1014.5
1292.36	929
1290.51	820.5
1288.66	770.5
1286.81	735
1284.96	732
1283.11	691.5
1281.26	685
1279.4	681.5
1277.55	688.5
1275.7	725
1273.84	709
1271.99	702
1270.13	717.5
1268.28	704
1266.42	689.5
1264.56	682
1262.71	661.5
1260.85	666.5
1258.99	650.5
1257.13	630
1255.27	619
1253.41	592.5
1251.56	556.5
1249.7	533.5
1247.83	496.5
1245.97	496
1244.11	492.5
1242.25	466.5
1240.39	469.5
1238.52	427.5
1236.66	446
1234.8	428.5
1232.93	418.5
1231.07	419
1229.2	405.5
1227.34	387.5
1225.47	382.5
1223.6	374.5
1221.74	376.5
1219.87	370.5
1218	381
1216.13	373
1214.26	361
1212.39	370.5
1210.53	366
1208.65	370
1206.78	359.5
1204.91	364.5
1203.04	355
1201.17	346
1199.3	358.5
1197.42	364
1195.55	361
1193.68	352.5
1191.8	364.5
1189.93	370.5
1188.05	354.5
1186.17	337
1184.3	356
1182.42	363
1180.54	371
1178.67	375.5
1176.79	388.5
1174.91	353
1173.03	373.5
1171.15	386.5
1169.27	392.5
1167.39	369
1165.51	380.5
1163.63	368
1161.75	380.5
1159.86	374
1157.98	364
1156.1	372.5
1154.21	398
1152.33	393.5
1150.44	402
1148.56	396.5
1146.67	404
1144.79	411.5
1142.9	422.5
1141.01	420
1139.12	417.5
1137.24	446.5
1135.35	492.5
1133.46	518.5
1131.57	573.5
1129.68	644.5
1127.79	643
1125.9	638.5
1124.01	639.5
1122.12	622.5
1120.22	590
1118.33	597.5
1116.44	573
1114.54	567.5
1112.65	566
1110.75	565.5
1108.86	601.5
1106.96	605
1105.07	622
1103.17	629
1101.27	687
1099.38	716
1097.48	729
1095.58	785.5
1093.68	820
1091.78	834.5
1089.88	873.5
1087.98	907
1086.08	900
1084.18	951
1082.28	936.5
1080.38	969
1078.47	940.5
1076.57	918
1074.67	876.5
1072.76	888
1070.86	883.5
1068.95	913
1067.05	955.5
1065.14	987
1063.24	952
1061.33	907
1059.42	832
1057.51	774.5
1055.6	723.5
1053.7	692
1051.79	688
1049.88	639
1047.97	642.5
1046.06	627
1044.14	625.5
1042.23	630.5
1040.32	615.5
1038.41	598
1036.5	605
1034.58	597
1032.67	595
1030.75	584.5
1028.84	596
1026.92	586
1025.01	611
1023.09	580.5
1021.17	593.5
1019.26	570.5
1017.34	596
1015.42	570.5
1013.5	548.5
1011.58	562
1009.66	546.5
1007.74	531
1005.82	521.5
1003.9	516.5
1001.98	511.5
1000.06	508
998.134	500
996.212	488
994.288	489.5
992.364	499.5
990.44	507
988.515	522
986.589	512.5
984.663	531.5
982.737	539
980.81	556.5
978.883	588
976.955	595
975.027	620.5
973.098	626.5
971.169	612.5
969.239	605
967.308	603
965.378	610.5
963.447	590.5
961.516	591
959.583	594.5
957.65	601
955.718	610.5
953.784	591.5
951.85	597
949.916	614.5
947.981	618.5
946.045	640.5
944.109	638.5
942.173	636
940.236	627.5
938.298	649
936.36	644
934.422	643
932.484	641
930.544	628.5
928.604	639.5
926.664	646
924.724	653
922.782	659.5
920.84	686.5
918.898	666
916.955	656.5
915.012	657
913.068	651
911.124	659
909.18	650.5
907.235	659.5
905.289	669.5
903.343	677.5
901.397	686
899.45	679
897.502	721.5
895.554	767.5
893.605	748.5
891.657	803
889.707	823.5
887.758	847.5
885.807	809.5
883.856	796
881.905	800
879.953	790.5
878.001	823.5
876.048	822.5
874.094	836
872.14	820
870.186	841.5
868.232	836
866.276	814
864.321	809.5
862.365	799.5
860.408	770
858.451	776
856.493	765
854.535	776.5
852.576	772
850.617	762
848.658	774.5
846.698	795.5
844.737	772
842.776	778.5
840.814	774
838.852	717.5
836.89	718.5
834.927	703.5
832.963	668
830.999	676
829.035	633
827.07	618
825.105	593
823.139	601
821.172	590
819.206	566
817.238	560.5
815.27	541
813.301	539.5
811.333	526
809.363	511
807.394	494
805.424	480
803.453	490
801.482	446
799.509	432.5
797.538	427.5
795.565	412.5
793.592	430
791.618	417.5
789.643	399.5
787.669	407
785.693	402
783.718	401
781.742	415.5
779.765	402.5
777.788	402
775.811	411.5
773.832	405.5
771.853	397
769.875	420.5
767.895	416
765.915	377
763.934	395
761.953	390
759.972	402
757.99	377.5
756.007	396
754.024	400.5
752.041	395
750.056	387
748.072	387
746.087	392.5
744.102	399
742.116	390.5
740.13	391
738.143	396
736.155	403.5
734.167	418.5
732.179	400
730.19	410
728.2	408.5
726.21	412.5
724.22	411
722.229	394.5
720.237	409.5
718.246	385
716.253	381.5
714.26	373
712.267	353.5
710.273	380
708.279	357
706.284	361
704.289	356
702.293	353.5
700.296	336
698.3	332.5
696.303	321.5
694.305	328
692.307	320
690.307	335
688.308	340.5
686.309	328.5
684.308	328.5
682.308	340.5
680.306	334.5
678.304	337
676.302	339.5
674.3	333.5
672.296	315
670.293	358.5
668.289	339
666.284	341
664.278	344
662.273	336
660.266	346.5
658.26	350
656.252	357
654.244	351.5
652.237	357
650.227	343.5
648.218	336
646.209	363.5
644.198	360
642.188	365.5
640.177	356
638.165	380
636.153	379.5
634.14	373
632.128	377.5
630.113	393.5
628.099	390.5
626.085	377.5
624.07	376.5
622.054	382
620.038	398.5
618.021	401.5
616.004	407.5
613.986	431
611.968	448
609.949	428
607.93	447
605.911	436
603.891	437.5
601.87	440.5
599.848	400.5
597.827	424.5
595.805	426
593.782	408.5
591.759	419
589.735	413
587.711	406
585.687	400
583.661	396.5
581.636	393.5
579.609	396
577.583	382
575.555	378
573.527	379
571.5	370
569.471	394
567.441	380.5
565.412	372
563.382	394
561.351	399.5
559.32	392
557.289	378.5
555.257	387
553.223	403.5
551.19	412
549.157	422
547.122	444.5
545.088	456
543.053	465.5
541.017	484
538.981	508.5
536.943	522
534.907	589.5
532.869	662.5
530.831	846.5
528.792	1064.5
526.752	1540.5
524.713	2158.5
522.673	2762.5
520.632	2878
518.591	2401.5
516.549	1851.5
514.507	1332
512.464	974
510.42	758
508.377	657
506.332	574
504.288	570.5
502.242	538
500.196	516
498.15	503
496.104	510
494.056	505
492.008	498.5
489.96	488.5
487.911	496.5
485.862	496.5
483.812	483
481.761	504.5
479.71	495.5
477.659	486
475.607	484
473.555	505
471.502	478.5
469.448	486
467.395	493
465.34	481
463.285	482
461.23	489.5
459.174	497
457.118	514.5
455.061	510
453.003	496
450.945	512.5
448.887	514
446.828	525
444.768	504.5
442.708	497.5
440.647	489
438.587	505
436.525	495
434.463	515
432.4	525.5
430.337	529
428.274	544
426.21	551
424.145	548
422.079	549
420.014	550
417.948	537.5
415.882	548
413.814	550.5
411.746	554.5
409.679	562.5
407.609	570.5
405.54	578
403.47	584
401.401	592.5
399.329	577
397.258	576
395.187	566.5
393.114	569.5
391.041	549.5
388.968	569.5
386.895	563.5
384.82	583.5
382.745	576
380.67	576.5
378.594	582.5
376.517	593
374.44	585.5
372.363	590
370.286	579
368.207	590
366.128	583
364.049	605.5
361.969	625
359.888	627
357.807	622
355.725	605
353.643	614
351.561	624.5
349.477	628
347.394	610
345.31	600.5
343.226	627.5
341.141	615.5
339.055	633
336.968	632
334.882	655
332.795	642.5
330.707	657.5
328.618	660
326.53	689
324.44	664.5
322.351	666
320.26	680.5
318.17	693.5
316.078	703.5
313.987	718
311.895	745
309.802	750.5
307.708	757.5
305.614	802.5
303.52	804.5
301.425	771
299.329	779
297.233	796
295.137	797
293.039	791
290.942	790.5
288.844	799
286.745	822.5
284.647	815.5
282.546	837
280.446	824.5
278.346	825
276.245	857.5
274.143	847.5
272.041	867.5
269.939	864.5
267.835	873
265.731	903
263.627	904
261.522	929
259.417	931.5
257.311	954
255.204	954
253.098	955.5
250.99	980.5
248.882	983
246.774	1018
244.664	1004
242.555	1028
240.445	1043
238.334	1048.5
236.223	1082
234.112	1110
232	1115.5
229.888	1108
227.775	1093
225.661	1156
223.546	1153.5
221.431	1171.5
219.316	1160
217.201	1208.5
215.084	1179.5
212.967	1200.5
210.85	1192
208.732	1215
206.614	1216.5
204.495	1235.5
202.375	1208.5
200.256	1207
198.135	1183
196.014	1214.5
193.893	1185.5
191.771	1193.5
189.648	1181
187.525	1198.5
185.401	1216
183.277	1225.5
181.152	1217
179.027	1200
176.901	1198
174.775	1213
172.648	1214
170.521	1252
168.393	1280
166.265	1287.5
164.136	1316
162.007	1309.5
159.876	1346
157.746	1371.5
155.615	1372.5
153.483	1417.5
151.351	1440
149.219	1488.5
147.086	1502.5
144.952	1553.5
142.818	1566.5
140.684	1647
138.548	1689
136.413	1739.5
134.276	1791
132.139	1815.5
130.002	1881
127.864	1976.5
125.725	2032.5
123.587	2079
121.447	2179
119.307	2245.5
117.166	2373.5
115.026	2425
112.885	2533.5
110.743	2639.5
108.6	2734.5
106.456	2778.5
104.313	2801.5
102.169	2772
100.023	2715.5
97.8789	2539
95.7328	2361
93.5869	2087
91.4392	1782
89.2919	1471
87.1447	1150
84.9959	872
